lifetime,max_ch1,max_ch2,max_ch3,ch1_lifetime,ch2_lifetime,ch3_lifetime,ch1_dist,ch2_dist,ch3_dist,md_ch1,md_ch2,md_ch3,track_category,condition,replicate,cell_id
301.0,246.1256638659581,448.58940630030327,34.23666448849808,301.0,97.0,6.0,8.363920061212424,7.997350497257079,10.314121615907514,0.24019745137076204,0.706022737184433,1.382533114783721,4.0,0,1,0-1
301.0,163.5896887938979,132.27265527017917,62.848867876457376,301.0,172.0,43.0,8.61691278841931,8.749520670265833,6.961814758057671,0.25029909315307464,0.5896030231096154,1.2471687776742912,4.0,0,1,0-1
301.0,97.81255902180142,329.63992693682843,46.38400772854266,301.0,176.0,10.0,1.854963896474727,2.6382773033147155,0.7995206037380818,0.30568411429633335,0.4598151329289154,1.6489418085954293,4.0,0,1,0-2
301.0,91.72773963232737,375.85115345166474,41.47374981485819,301.0,241.0,5.0,10.087949236680377,10.563051990768482,10.087949236680377,0.3385982985461636,0.24455116562573362,1.3837834083136518,4.0,0,1,0-2
301.0,118.47539171295942,332.48708111062933,58.927365014423025,301.0,190.0,76.0,6.507570420276107,6.093960035861844,5.458024551785161,0.3399223010936126,0.5704501772567884,0.5884824761863192,4.0,0,1,0-2
301.0,198.19871265835513,388.3004031772024,39.059208137094984,301.0,165.0,3.0,6.44828280096662,5.999178819421821,7.733647150674808,0.3488857679094619,0.4471560369652044,1.243947397298233,4.0,0,1,0-2
301.0,247.8967422190685,833.3824528333106,129.0893157895786,301.0,284.0,95.0,4.298783450133346,5.09461474254146,4.298783450133346,0.1807592681275593,0.3419533881594851,0.8167481356367787,4.0,0,1,0-2
301.0,192.47494157599658,780.4371972958288,135.13124341218864,301.0,301.0,166.0,5.50172474542355,6.663216236777046,5.857446847245834,0.22280749120717455,0.15785745346795185,0.4397985798417282,4.0,0,1,0-2
301.0,150.01067712822635,694.0465163079932,50.014252077556144,301.0,72.0,3.0,9.65133398215603,9.338680602364324,12.977903014693876,0.23440761569888602,0.5816399087323837,1.5786150324696508,4.0,0,1,0-2
301.0,121.2998924890856,1103.9266281056393,53.57231216406728,301.0,138.0,4.0,10.198137375921947,11.200206881476385,10.198137375921947,0.338845509117452,0.5321978117458666,1.6520208492365756,4.0,0,1,0-2
301.0,186.84583952052924,298.5911583134462,92.04111636265436,301.0,209.0,4.0,5.483339003126886,5.490316899938769,6.4896299681517835,0.24389899673383095,0.5656617576579316,1.0246797696269114,4.0,0,1,0-2
301.0,217.28499166157934,501.8027642121625,54.76758940615186,301.0,77.0,3.0,1.226046533657176,1.612662296180038,1.226046533657176,0.21631117032442992,0.6155102392322243,1.6360323204112819,4.0,0,1,0-2
301.0,151.37106551136384,285.08868891585377,55.35492540224432,301.0,301.0,6.0,4.458910032778214,4.992107114966557,4.3575549568258305,0.22962031927601928,0.3606531558013633,1.540030648180623,4.0,0,1,0-2
301.0,134.86930770467313,1033.5098708865298,121.54340608703878,301.0,301.0,56.0,3.8848270383004277,5.79798585488459,6.224457138700853,0.36610014807392777,0.314506145496256,1.1622627552700762,4.0,0,1,0-2
301.0,97.57841809777477,464.8129210752383,44.108052398554975,301.0,68.0,4.0,0.9339587311660454,2.1112785222668333,0.9339587311660454,0.3939305628396715,0.7009942296952256,1.5654350643828179,4.0,0,1,0-2
301.0,112.90017313783403,920.0547068131709,37.3573563417938,301.0,127.0,3.0,12.237387286362088,10.366459454356399,11.302683897588196,0.3156222436939972,0.6073477310451593,1.481081632733495,4.0,0,1,0-2
301.0,101.49745958409474,305.65484746170773,39.030515551815775,279.0,141.0,4.0,8.494399650522599,8.048686739412267,8.494399650522599,0.34446878847514173,0.6264627061105532,1.6474930299824377,4.0,0,1,0-2
301.0,98.34795358649511,198.11100414612216,48.78358948675259,156.0,211.0,3.0,5.038393636495346,4.73100427359829,5.00764086929973,0.4587500612597952,0.7283909640417594,1.5665082377892219,4.0,0,1,0-2
301.0,110.47286706809868,244.08465806053056,29.503340683457893,276.0,179.0,3.0,4.765217420118022,5.036281672013925,4.319885882595122,0.4070883397611253,0.4825511364145469,1.4781913203586712,4.0,0,1,0-2
301.0,92.27716102742056,376.27391303046807,51.5431457289752,274.0,78.0,9.0,6.201609735602082,5.535587268553736,7.998622394927989,0.3881489210648999,0.474609943926617,1.6029001566779788,4.0,0,1,0-2
301.0,68.01163987480773,415.45401667525255,30.94821822345528,272.0,83.0,6.0,5.502377763804323,4.453852330820913,4.967004588214054,0.4553266137864291,0.9593545749750545,1.9334312964545082,4.0,0,1,0-2
197.0,58.406490719819196,1116.679472166016,43.45737551133638,44.0,197.0,3.0,3.136929682537102,3.4597075242712876,6.276321259892306,0.6206151059871591,0.1800867155280872,1.9217827664574505,1.0,0,1,0-2
172.0,51.52110461410218,184.85539196687378,28.348551973577013,78.0,38.0,3.0,3.7082341594795274,3.7834982268847903,1.3607885513910933,0.6665316475799052,0.9170138509249879,1.7565998042235915,1.0,0,1,0-2
124.0,101.03375279754937,222.99854472009517,36.99309190248108,95.0,85.0,3.0,1.69267012101186,0.7167512199632927,4.199260164624885,0.5203346296043964,0.4301806478782209,1.3218304080321306,1.0,0,1,0-2
111.0,67.72981275951187,692.8105648166463,45.755380330121234,104.0,111.0,4.0,3.3210272375864736,4.760530904082311,2.808586576312405,0.529408978846983,0.33280891279018465,1.354649283018308,1.0,0,1,0-2
45.0,34.87999506506775,168.15402006242283,39.24353340348433,39.0,13.0,7.0,1.6729406265568623,6.329250874982031,5.938087741812347,0.9080647890041607,0.8572180726626171,1.4202267057825617,1.0,0,1,0-2
43.0,32.867331221881386,92.08096285581682,47.55255927785149,7.0,23.0,9.0,0.43962662283912957,0.23994703805358994,2.7914344422036628,0.9711112960510067,0.9806421596146012,1.2465384456800002,1.0,0,1,0-2
39.0,40.137095336995266,69.66699286353526,41.71949629876255,11.0,9.0,4.0,0.3836361470070228,1.435109832641629,1.863407251507911,0.8924784100701397,0.9879236125561531,1.6178761025736526,1.0,0,1,0-2
29.0,25.746615874558632,191.25803057332192,52.03890963214165,10.0,20.0,6.0,4.991134757585787,2.654211090845103,2.048450751619752,1.1564218452527815,0.20635758288877443,1.6191553703374149,1.0,0,1,0-2
29.0,36.79326643663778,360.9186239461476,53.29769815993144,9.0,25.0,7.0,3.6964371878580713,6.194848358427635,6.454831597824308,1.0172954895863233,0.3728811043927306,0.9747992550184972,1.0,0,1,0-2
25.0,27.154754348648176,161.4425789996016,61.08630939136119,14.0,9.0,4.0,0.6840272206418225,2.1336457074980926,1.653864469829709,1.1279306316507494,1.5057261926435948,2.025706380906355,1.0,0,1,0-2
23.0,36.63079461043951,71.59553852851195,23.89785215533645,9.0,5.0,3.0,1.9505365393090317,1.6822630142230044,1.2854781100128887,1.0439313971096909,1.2136616961489608,1.7097703389218277,1.0,0,1,0-2
21.0,25.60393824753766,73.3291063479117,33.11405391099437,4.0,6.0,3.0,0.8245549093626119,1.8959515465355636,2.800253669910787,1.0937237578058696,0.8793285570002987,1.524929105639509,1.0,0,1,0-2
301.0,108.28052380567611,1504.5464421188838,56.26938414112305,301.0,111.0,10.0,7.975791701546206,6.615102683068317,7.89186321005133,0.40432405896878576,0.6952051812053329,1.4667703528261022,4.0,0,1,0-3
301.0,125.22277537139006,483.75080696322476,66.0527293913956,301.0,186.0,8.0,5.2881661249946035,6.271610900797118,5.2881661249946035,0.28508690430738653,0.4514866898255268,1.2998456143967128,4.0,0,1,0-3
301.0,119.75114571776889,1622.3334218466396,42.91036179138453,301.0,124.0,6.0,6.041826834327573,7.052895836413436,8.484567736641711,0.2809881823347447,0.6133457819781001,1.5018875410825159,4.0,0,1,0-3
301.0,115.11202111677272,873.8000917302177,99.33805343513471,301.0,274.0,44.0,9.179494805329496,9.91691799206628,9.35245114175954,0.3566016456236264,0.3776081735554112,1.4263898680131095,4.0,0,1,0-3
301.0,107.47431450330537,449.65731448421866,61.262517369162126,301.0,214.0,6.0,12.060525515619535,11.68833950858696,12.060525515619535,0.32828084082530534,0.4504206178723255,1.2101951263232331,4.0,0,1,0-3
301.0,146.36545414971965,496.22051915140105,30.178222766835418,301.0,160.0,3.0,4.660111496916216,4.316389220201298,3.8488769351535703,0.36035368942043805,0.5468161741980363,1.4086281581388076,4.0,0,1,0-3
301.0,169.3430375286491,360.2186109576123,30.907865144753753,301.0,208.0,3.0,6.446780864991509,6.70036089053065,6.5515228459072175,0.23785585940546602,0.5666309951526497,1.8653369102726334,4.0,0,1,0-3
301.0,197.53001790829194,506.4372331318252,32.37218098601205,301.0,167.0,3.0,5.2291582029908295,5.667156032129156,3.2544973358807576,0.281870880267644,0.7194008074732788,1.5463250833259983,4.0,0,1,0-3
301.0,307.5848058887323,260.251059210603,39.12201347935263,301.0,301.0,5.0,2.7537360312299723,2.458829638253958,2.7537360312299723,0.22567720285230725,0.3996840007072232,1.4326439630198808,4.0,0,1,0-3
301.0,108.29471175899488,281.2285550141034,54.235570778596966,286.0,101.0,8.0,10.510995534066847,10.376259558975084,10.510995534066847,0.32505187541438846,0.5837690288993063,1.5128628058941465,4.0,0,1,0-3
301.0,50.763290243311886,62.679677130988516,36.63012283178987,261.0,14.0,3.0,3.720165876636714,4.115443362905866,3.9305671048213804,0.49423442315907534,1.0459777132300307,1.6709419582814875,4.0,0,1,0-3
301.0,147.32666780226768,1228.050065871595,88.95472446881082,249.0,205.0,59.0,4.035700084003981,4.386085700035642,5.971433620953254,0.500187630545133,0.5211327797420378,1.320369462752233,4.0,0,1,0-3
301.0,142.86131678932574,1288.5278166331289,71.03373450636565,301.0,141.0,53.0,7.2078974257584765,6.284126404374085,7.2078974257584765,0.3580701262984684,0.34869629873832764,1.0551643963600146,4.0,0,1,0-3
210.0,49.26571257303087,380.1590382136744,91.12510548000124,72.0,38.0,19.0,8.813997048151483,8.169705202470274,8.876214256774748,0.6277927417119015,0.9276275311130754,1.4770187259988103,1.0,0,1,0-3
134.0,71.85045534691872,145.97682517043947,48.86486299392074,123.0,59.0,3.0,22.833087146485457,18.7885998395039,18.30760680879508,0.5773026492476182,1.0277374309665919,1.5760777797176209,1.0,0,1,0-3
119.0,41.022097591104966,73.25032093242712,59.61466335811926,30.0,26.0,5.0,6.045211558264167,2.1218014247574004,5.475311804629312,0.8130923066121378,1.065622748334547,1.384583743942555,1.0,0,1,0-3
82.0,38.886592072004355,216.980868012059,36.24292787583613,14.0,56.0,3.0,8.241330195858673,3.5231442234075625,3.3389127343972174,0.8920911392213363,0.5089175020292341,1.0154734526660028,1.0,0,1,0-3
76.0,46.744242398906906,331.59832396903096,63.635463167241404,51.0,4.0,8.0,1.5652042338271202,1.5419237478564283,1.4898003336950327,0.8483153043662185,0.6865468412923462,1.916449552208815,1.0,0,1,0-3
63.0,47.08623347526324,168.61067895444057,47.52813157691399,28.0,44.0,3.0,4.8827365961804,5.561564796658816,1.8448871727920628,0.5759142509157644,0.6932469181911429,1.829507726861303,1.0,0,1,0-3
58.0,32.41916154520594,183.88188657866547,84.0664615233936,9.0,42.0,6.0,2.9712785561817343,1.5054152871630033,1.872488806437734,1.107142507129252,0.8010321902162442,0.9872816996757064,1.0,0,1,0-3
38.0,36.533701975910134,916.8673054662285,40.11654540040511,14.0,38.0,7.0,3.2576625666300374,4.225524550005856,0.5105648417445883,1.1085141900055064,0.31939112308657663,1.252352191758921,1.0,0,1,0-3
36.0,24.90418823295028,120.34312725957807,35.92278470947688,5.0,36.0,4.0,0.8714303456989434,1.1538266198165812,3.990201412444183,0.7541947155850391,0.3708869233034565,1.3478613869691065,1.0,0,1,0-3
301.0,113.06081896005614,525.7015373830591,35.20705659001727,301.0,222.0,3.0,15.792668026847458,15.49798897380983,15.792668026847458,0.35253144850020657,0.5997765458034091,1.4914529735060744,4.0,0,1,0-4
301.0,373.9348463884979,956.311990843573,48.15826831933354,301.0,270.0,5.0,4.002530009271316,3.791811125996954,4.002530009271316,0.23881725663718215,0.31861758937688933,1.4768685097856997,4.0,0,1,0-4
301.0,213.85389673754045,743.4985966572336,69.36905674153978,301.0,281.0,19.0,8.695622258726871,9.68975126604634,10.680381726237988,0.24082892451271698,0.4060832883956608,1.3460008743820273,4.0,0,1,0-4
301.0,97.96681032399427,522.6505941785384,36.773150181670196,301.0,30.0,3.0,4.205818022647822,4.702023325770467,4.205818022647822,0.34664734616253395,0.8077084493237247,1.4273173356511637,4.0,0,1,0-4
301.0,288.45831865362305,1710.636773312421,34.93042766385291,301.0,167.0,5.0,13.521831224175735,14.754829769214755,12.604278261460468,0.222635978115462,0.2763807742450956,1.4570238887318097,4.0,0,1,0-4
301.0,189.5953500610419,156.49489138401748,33.60747654829142,301.0,73.0,3.0,2.4648335575964118,3.22729619089499,2.4648335575964118,0.43160931613748355,0.8790372510490301,1.868606285419356,4.0,0,1,0-4
301.0,117.08137194989054,276.14357150979066,48.63062704884644,254.0,50.0,3.0,0.6281851694777069,1.2079444151754226,0.6281851694777069,0.40952129392829134,0.793125089738546,1.808053021733259,4.0,0,1,0-4
200.0,82.94577916068162,336.5623179910834,31.03151478695344,198.0,165.0,3.0,11.799121507178667,13.23611988460314,11.361504452295344,0.5715338190072008,0.565475939234695,2.083237296460326,1.0,0,1,0-4
101.0,40.78382737588235,84.03649028963333,49.80294295778255,31.0,18.0,3.0,8.719764055318695,7.223112962465927,11.624257596190631,0.8070380100870977,1.054299564019171,1.847500415890493,1.0,0,1,0-4
86.0,79.265087430424,736.2127259200419,64.81710881765417,12.0,52.0,14.0,4.209184632145182,3.1256806397777592,2.530890704436879,0.43258440360888184,0.6071208369174907,1.297855423639762,1.0,0,1,0-4
301.0,145.33253887961416,406.39595889776115,44.717558562686314,301.0,145.0,7.0,13.514783174154479,13.481760379550144,16.017382001273685,0.22535171433427637,0.5318957160519694,1.3517536081714698,4.0,0,1,0-5
301.0,107.78719640615569,551.2797170976676,56.98508694765733,301.0,107.0,21.0,5.808096645898069,6.433956212003303,6.6368043339488265,0.3828161118881115,0.5643923556666957,1.290239526418773,4.0,0,1,0-5
301.0,213.79795558846612,362.7945786861791,38.75288152539315,301.0,212.0,3.0,5.06911865864265,5.865300024352537,7.75150489862086,0.2516355713442149,0.5629290932240862,1.159104291038044,4.0,0,1,0-5
301.0,277.91458468955966,398.44095110332665,81.72040545975761,301.0,79.0,7.0,9.476794564585186,10.274710753161315,9.957011811853677,0.2754383512415604,0.5455505887340314,1.146102188303595,4.0,0,1,0-5
301.0,162.4899353833967,222.49067462714436,68.54959564673743,301.0,134.0,3.0,10.194025893941282,10.267034030107412,10.194025893941282,0.33358832864766225,0.5684126058426241,1.4921724589373073,4.0,0,1,0-5
301.0,215.5058948021387,956.8486534316962,51.96872292240799,301.0,295.0,3.0,4.573004243269189,5.112395953139312,6.002539342353043,0.22290561466322548,0.3024935447213465,1.0694021415765933,4.0,0,1,0-5
301.0,82.04504842982861,724.6563798533964,42.626233773526,275.0,140.0,3.0,5.290298156228983,5.9799754672067404,3.6522101307877324,0.460416137277431,0.42634150362978934,1.420570325120276,4.0,0,1,0-5
301.0,60.75325139858996,322.1119511352356,37.8972196970242,104.0,125.0,4.0,4.785618692486029,4.806953189164367,4.785618692486029,0.5264222735693672,0.5413853224908177,1.5861135912842528,4.0,0,1,0-5
119.0,48.28938418738952,333.84339074976134,63.968318051555976,43.0,35.0,3.0,2.799269157730227,3.6043849038580618,2.986691583038817,0.7623255363309105,0.7291318979542829,1.355176070209001,1.0,0,1,0-5
107.0,151.9640248347099,1598.7786373175045,35.02248788279783,31.0,77.0,3.0,1.3305381545784376,6.023388056882737,0.6625771105135162,0.6666164215601603,0.48692428455985304,1.4949659816945724,1.0,0,1,0-5
62.0,33.15948525136852,142.0899015230011,43.480291149134324,18.0,29.0,3.0,15.404180699343389,12.041021362875986,13.542727735630367,0.9360616262737855,1.3504475843263815,1.5987818137679448,1.0,0,1,0-5
56.0,92.86809205801487,1004.0589449879401,104.78440598390249,35.0,27.0,12.0,0.9996241149527737,0.9996241149527737,2.5159656027173125,0.6905959768612421,0.7458830395019559,1.5499030248025398,1.0,0,1,0-5
55.0,29.50185278722426,104.13861376370562,31.49076393080029,11.0,51.0,3.0,4.284432926410205,4.61516679800062,4.238980630080787,1.0886914505889944,0.4843639603030411,1.5461238602576457,1.0,0,1,0-5
39.0,26.93012465109042,274.2850843001128,94.16606281629952,7.0,39.0,20.0,1.7042962797202266,1.0840655552783187,1.402565910545927,0.6916654557202794,0.23812650030344984,0.6555742461426228,1.0,0,1,0-5
29.0,52.19112886560714,672.3408146681102,67.87204295202203,30.0,29.0,8.0,0.7272464282292938,1.5108074206248416,0.7039559063172899,0.4324205524325901,0.13626985882103648,1.4591195287825314,1.0,0,1,0-5
26.0,26.713635689161,114.54311246269492,47.55796159689264,3.0,26.0,11.0,0.31988725661543954,1.115591803204614,4.11661708760503,0.7867814567953896,0.3334182005221701,1.4040298354318852,1.0,0,1,0-5
22.0,69.89596919099255,735.0248403854289,52.35226123930937,14.0,14.0,10.0,0.7699427616076084,5.660053270530978,2.0113356903541524,0.26535649958893737,0.720326483473457,1.412142523386306,1.0,0,1,0-5
301.0,272.8728995100182,1127.3135726779233,41.854703922090806,301.0,301.0,3.0,6.51577953557769,6.94464157892933,6.51577953557769,0.2713152727071584,0.3300010698787967,1.4087640702240465,4.0,0,2,0-6
301.0,104.83825391301022,253.63651471955077,29.74996474239915,301.0,22.0,3.0,10.487794785124247,10.527724846475094,10.487794785124247,0.38409258863124274,0.9482489084818027,1.3903296684372592,4.0,0,2,0-6
301.0,114.79957722636243,323.2907000101882,40.99665932457873,301.0,301.0,4.0,17.012025316691837,16.864949579213825,17.012025316691837,0.3493805398536198,0.3272162924664035,1.0052838591493496,4.0,0,2,0-6
301.0,142.3147736332958,599.643949678292,44.239384180612944,301.0,151.0,3.0,9.753319247460169,9.065609990703658,8.565931188372742,0.2647970877245187,0.5147781197901989,1.5741461903879628,4.0,0,2,0-6
301.0,68.64459367737116,184.66865362763784,44.76239328963128,301.0,301.0,3.0,10.78713486436442,9.505340096518484,12.039778005151502,0.4484424915734936,0.40232017117993396,1.7143385955325856,4.0,0,2,0-6
301.0,210.1721671087289,1083.3415987687665,47.87134652722766,301.0,301.0,3.0,27.810062228614918,29.017618282596022,28.207035691216355,0.39776391603833633,0.41730629224486676,1.4138719318316642,4.0,0,2,0-6
301.0,133.80710754283322,678.6879512115423,31.325581393956412,301.0,98.0,3.0,8.303761465166602,7.695486014043949,6.209075860803904,0.28236050412227304,0.5077791740313237,1.4666068426694399,4.0,0,2,0-6
301.0,90.17230128922346,453.696062737928,40.88963047767288,301.0,77.0,5.0,6.409483135171857,5.8102822645170695,4.468140938576484,0.3747716335246923,0.4436717249278782,1.551469614934705,4.0,0,2,0-6
301.0,206.36034223153396,1980.7300030467882,94.27350880346945,301.0,301.0,61.0,7.669025309856181,8.137978363271081,7.669025309856181,0.21382128999179154,0.30635052036113813,1.155850932743869,4.0,0,2,0-6
301.0,73.60485810622338,598.5262232986819,53.588146493730484,301.0,152.0,5.0,1.8318405537748785,3.5078595021606067,1.8318405537748785,0.4293279483325364,0.7106197139469755,1.3162038621493188,4.0,0,2,0-6
301.0,128.6675119166964,1892.4732527512656,42.897515399039925,301.0,144.0,4.0,2.376979496388304,1.4781209309432022,2.376979496388304,0.31607128723251987,0.5248033436483398,1.7850623241533075,4.0,0,2,0-6
301.0,84.76371552443698,581.9533886544612,52.93299451576554,249.0,110.0,7.0,20.78418404369815,19.759030068612116,20.78418404369815,0.5844549565253297,0.5642688615502894,1.5293043567390678,4.0,0,2,0-6
187.0,57.284756490552546,538.5013355745895,57.949219828431325,124.0,80.0,3.0,30.65872054072584,23.766798097359565,30.578741724856272,0.6057235405369921,0.6056262118150347,1.674574470371386,1.0,0,2,0-6
127.0,50.775502273073464,200.3342598060796,55.87257669581177,94.0,39.0,6.0,0.5564676890324509,1.2543527762628022,0.2721967489450058,0.6553301641149083,0.9929911567201735,1.4353181324491344,1.0,0,2,0-6
104.0,38.6849837732561,165.38882068299515,36.95301215465559,49.0,82.0,3.0,5.818735573794689,5.069708270788744,5.346716420502599,0.7646285153935363,0.6118912894614891,1.4799102672295752,1.0,0,2,0-6
73.0,34.61414638016427,409.24280304506726,71.18966135176251,30.0,60.0,10.0,1.2225233993532676,1.720722000963575,5.749761664731731,0.6668513587123811,0.4992661747606903,1.3422362598555175,1.0,0,2,0-6
40.0,36.30991743043021,169.2209783926485,58.65213187998708,17.0,8.0,3.0,4.2997692555235,5.698032917387222,2.1073395537124044,0.8969678337985943,0.9910204221370331,1.8070180426412352,1.0,0,2,0-6
36.0,39.7301163383685,507.81258421626654,72.50244231524603,24.0,13.0,3.0,3.847288450253199,2.3972867595487672,1.556473870582219,0.9969610488007549,0.90838672679465,1.8000373830245846,1.0,0,2,0-6
301.0,156.07020863808341,339.02353130587915,41.297989289541704,301.0,285.0,9.0,5.938403288673409,6.692949294477818,7.311152141668389,0.3538624414968673,0.4413173524571737,1.6206118914412355,4.0,0,2,0-7
301.0,119.63761850125474,1260.442701315816,44.129176791449915,301.0,87.0,3.0,5.785554477645093,5.849638882087492,5.785554477645093,0.35113404584403685,0.42429198555391906,1.5722268028866748,4.0,0,2,0-7
301.0,160.85068365813245,289.74859862823183,62.17226287854895,301.0,170.0,5.0,4.697174626371713,4.583865349785796,5.934443587589256,0.2579475363973083,0.5222436361053144,1.5473152052748318,4.0,0,2,0-7
301.0,200.366737822016,1419.8580914009863,71.86708941017129,301.0,264.0,43.0,5.347588072717605,6.033254235087081,5.347588072717605,0.33673008538241056,0.2856333436998049,1.209709608276865,4.0,0,2,0-7
301.0,53.80563368782638,492.7712239410862,35.91329873421902,149.0,30.0,3.0,7.016689980169247,4.720679519059876,3.18919247639554,0.49610779093113533,0.9086189829829524,1.4067735644036203,4.0,0,2,0-7
301.0,115.78528484998742,536.1701188903957,45.80789358038441,230.0,183.0,5.0,37.63153503923717,38.20930244652292,38.86679234468582,0.4545157338624147,0.5289365712217556,1.4271562398396436,4.0,0,2,0-7
177.0,57.56459335044684,260.55440167666575,39.49298187746566,69.0,8.0,3.0,8.205482412004331,12.134876597226429,12.445632322319549,0.80609723134254,0.9298185935672162,1.5046460152931098,1.0,0,2,0-7
98.0,65.25617160357886,379.90522440304323,43.744999099360314,88.0,19.0,4.0,13.127112612990407,12.057822210109528,13.486734273892612,0.6882244850085754,1.1708797517563856,1.7917479031957106,1.0,0,2,0-7
95.0,47.390150707029115,387.21902884240444,35.98330715104946,52.0,46.0,3.0,9.915552546119722,9.085175814830956,6.298466769284312,0.7447054961972172,0.7895929424619138,1.41476325952808,1.0,0,2,0-7
50.0,49.008460539765686,308.5310708382415,27.621801552471528,42.0,43.0,3.0,0.7126048778648748,2.445648132785757,0.7568299321560241,0.6193229020187745,0.5032756586036203,1.7176119041644478,1.0,0,2,0-7
33.0,36.344581612690845,104.50401560647134,50.20976368841014,14.0,15.0,3.0,6.925271670653536,5.714872568152857,4.919955315715978,0.7948855862536397,0.7301533515024111,1.7448678852996888,1.0,0,2,0-7
33.0,45.020232379223266,105.98521397798191,31.635951153589616,24.0,8.0,3.0,2.6949005758570985,3.0842951455686047,2.647541032071201,0.9097135558379049,0.6899184236477232,1.4070225534822418,1.0,0,2,0-7
30.0,23.136426043124978,138.3808635353574,34.47475334149426,3.0,23.0,3.0,0.2635331842282589,2.7795861732210496,4.099882071202646,0.9627047562004691,0.6489820447562828,1.814221496336557,1.0,0,2,0-7
25.0,69.4566258545569,983.7152566113051,27.71932867219809,15.0,5.0,3.0,2.872583410241651,5.570795409114274,4.16452604868027,0.9249839836818086,1.1398689965343252,2.060336474579582,1.0,0,2,0-7
301.0,87.30989308344517,264.15580969127774,30.806363523612575,301.0,265.0,4.0,7.637605822634937,6.558796429602753,10.955722572220877,0.35017692155812874,0.5214574508192701,1.2057484625081194,4.0,0,2,0-8
301.0,155.11695035838906,278.44090548565066,99.11845253406892,301.0,89.0,10.0,0.6975883362862917,1.287863498280365,1.1754567740759743,0.3222835511952882,0.9474487176134583,1.5749575548964578,4.0,0,2,0-8
301.0,173.5994379987801,721.3359570120301,37.96512666736168,301.0,138.0,3.0,22.91264176900071,23.68111330295257,22.91264176900071,0.3054784765721129,0.770858435663489,1.2886938067491274,4.0,0,2,0-8
301.0,70.06328513507975,683.4048447034429,47.56575958535609,301.0,73.0,4.0,2.673391687556367,2.844452838423129,2.673391687556367,0.5783873602099008,0.6778954086140692,1.2704095056460851,4.0,0,2,0-8
301.0,147.59285016045501,202.4275141672177,38.63401886068946,301.0,87.0,9.0,12.486805701555449,13.481513835747997,12.486805701555449,0.2908252741087238,0.5915409780407173,0.964082194891079,4.0,0,2,0-8
301.0,261.2549420998869,666.6502882444746,41.42864960535077,301.0,242.0,3.0,2.2777902952241096,1.688437412993808,1.3723834257724106,0.2672634241135089,0.302018923707705,1.5851670697709002,4.0,0,2,0-8
301.0,198.66506653878406,765.2172641676132,57.747270802811826,301.0,88.0,7.0,3.4681074322344037,4.788203640772433,4.891922940310246,0.2738794563899036,0.6130687217984714,1.4711660936172195,4.0,0,2,0-8
301.0,125.51563328843919,287.57128535372317,43.07218818947951,290.0,77.0,4.0,4.139598109243589,4.139598109243589,4.139598109243589,0.3245457502537033,0.63901118900495,1.283801820314385,4.0,0,2,0-8
301.0,91.51959257233663,199.68910668441362,70.40436342661006,151.0,32.0,5.0,3.6280808613035824,2.5596473563989988,3.6280808613035824,0.5491583823993245,0.9408175226957219,1.2310088480195243,4.0,0,2,0-8
301.0,83.63931827097576,232.89749614086654,50.33358197608425,301.0,29.0,9.0,5.776589115250193,3.3988567622777612,3.7069776256006928,0.6164977544375515,1.5164398283451528,1.3201895299658504,4.0,0,2,0-8
301.0,111.86529008242219,853.400884389711,64.35751378421011,301.0,79.0,4.0,5.123908663391023,3.863936499139127,7.7103332122115535,0.4246293491312759,0.6760257311392494,1.1950797241017541,4.0,0,2,0-8
301.0,100.30551345607273,292.1342331308143,69.91157415037333,230.0,57.0,12.0,5.353058645531424,6.97947299263398,5.353058645531424,0.3637485146370248,0.706319327258518,1.0927051961218548,4.0,0,2,0-8
301.0,128.68671043129106,772.3542702233298,133.9906218853492,301.0,230.0,83.0,2.2677460330711607,2.4007979581419865,2.5597767694528346,0.2647322995686754,0.47944584081500957,1.1819567037427323,4.0,0,2,0-8
201.0,80.12169338289803,172.14394599239037,51.072626236875465,169.0,70.0,8.0,6.593000345288644,7.747796628842688,9.124031177758793,0.47360641006611576,0.7453792002973425,1.5450634913001202,1.0,0,2,0-8
162.0,71.91402005816444,376.6301320711945,40.38370531251931,138.0,35.0,5.0,22.196263241183882,22.00761228558973,21.850107968421685,0.5753162086918349,0.5249583129968444,1.2311019600012048,1.0,0,2,0-8
136.0,43.23099310825752,121.73652604088986,56.10665041099665,38.0,22.0,3.0,7.879037292529202,8.935667942988708,6.260059195347994,0.7624515614701525,1.1203931922455823,1.695797626179947,1.0,0,2,0-8
118.0,71.7961619685802,318.80205821931736,47.81294489347853,97.0,54.0,6.0,4.175743649341403,1.814205234138528,4.562959690319671,0.6523452965547301,0.7848619571895636,1.616666060718313,1.0,0,2,0-8
106.0,65.26759238817068,377.91133610099274,37.84720178609425,81.0,47.0,4.0,4.674922870531557,3.004202073732174,5.085552311335051,0.5829061460608794,1.0010732933121287,1.602145401646246,1.0,0,2,0-8
86.0,46.42168026010861,154.96165055320785,48.17486319270481,14.0,20.0,5.0,5.48073758866535,4.8179000461726895,8.578554051203247,0.6608951460647674,0.9189496394304077,1.648242394051899,1.0,0,2,0-8
301.0,182.9107425669631,466.1347847138846,39.71535543390852,301.0,75.0,3.0,4.079093596205233,6.654367761431234,4.079093596205233,0.42373253849445336,0.8318986254446059,1.4622664421598042,4.0,0,2,0-9
301.0,204.45040251857145,1782.0421361486071,38.70686361279299,301.0,194.0,3.0,2.402963540985347,2.769199584790805,3.0820960220282645,0.3142210144898852,0.3585572102013323,1.7022020958808972,4.0,0,2,0-9
301.0,100.62931202297479,476.9584972318191,38.146472468548026,301.0,136.0,4.0,3.0538781812582223,3.300882961087531,3.0538781812582223,0.35372720566968874,0.7222845205033007,1.452684778248944,4.0,0,2,0-9
301.0,135.90436889046944,251.09220296570936,42.349512168544194,301.0,102.0,6.0,17.45352854888156,18.428986999370505,17.625831170844968,0.30066266029790595,0.6503472020650393,1.4431943874114646,4.0,0,2,0-9
301.0,147.7402135066645,407.44968482919035,37.518245319788115,301.0,121.0,5.0,9.595319093951286,9.369475825247,9.595319093951286,0.25999411511333176,0.6738177294471032,1.2117383113804332,4.0,0,2,0-9
301.0,98.86791875492503,337.43719604968186,30.24323992228392,253.0,132.0,3.0,7.694266240946732,7.43516895268429,7.57353578263945,0.38304645793942704,0.8460204697638796,1.4015804033010184,4.0,0,2,0-9
301.0,89.61485204336725,197.43876286693953,62.22246631862777,301.0,226.0,21.0,12.398890312316102,12.762506131228598,14.414995574150284,0.4076586604711712,0.6085311123842176,1.3300847378179759,4.0,0,2,0-9
301.0,114.95027186829303,431.9177262490682,40.20824574106183,248.0,90.0,5.0,15.505560833504587,13.002020416927234,15.505560833504587,0.39306053637298427,0.8605541444069964,1.4155487595381435,4.0,0,2,0-9
301.0,86.34686827386473,650.033835270025,52.0325973642418,231.0,116.0,4.0,9.323884280431741,10.378088510017891,8.651267601135624,0.4127821337974663,0.663712704066019,1.5495503103045776,4.0,0,2,0-9
301.0,96.4979225754508,861.4066532970263,113.37993020904527,162.0,113.0,30.0,9.7883637376908,10.335700918192705,9.846393105940066,0.3974594887508593,0.8119758031461669,1.2975754297713622,4.0,0,2,0-9
301.0,96.19735551952577,275.43853251123244,53.54026213981726,255.0,56.0,20.0,5.040429683624768,6.192331507380408,5.428420800652138,0.5353218224545269,0.9263593029930138,1.4171701454341277,4.0,0,2,0-9
233.0,81.7854476455695,488.3211300333618,49.36231108718425,182.0,43.0,5.0,10.318529267054128,9.982190740256167,11.853337789299275,0.6090466199221811,0.9174347782744979,1.6533920091998437,1.0,0,2,0-9
197.0,53.908518055636954,352.33842302370715,35.6910946163445,164.0,43.0,3.0,1.0556439019796213,1.7289860196634441,1.6543350865345554,0.5879508046666986,1.2159874353366453,1.2821076798562998,1.0,0,2,0-9
191.0,59.0945595842504,182.3828359521156,61.43455494568497,60.0,78.0,13.0,17.547674890534957,16.370973389460993,20.752963297782163,0.6102371004148711,0.4516601898721795,1.3714803464248657,1.0,0,2,0-9
148.0,56.46408745616637,397.47945305608323,58.16787641158425,89.0,100.0,3.0,1.6278451406142975,0.8348697936860066,2.1805080324956863,0.8152143359526081,0.6802515297595751,1.380511464570279,1.0,0,2,0-9
147.0,48.51037802992225,719.8751364463001,45.191461252209066,78.0,70.0,11.0,22.32647241547282,18.901022639340983,20.734476731758875,0.5662356994715338,0.9915471802628907,1.5301061698896599,1.0,0,2,0-9
115.0,46.46524617171154,555.2073451416787,53.606432768581726,31.0,104.0,5.0,7.9230077628947875,9.224184358780242,10.697256836821989,0.838386796609796,0.3393523530763063,1.4022080487112403,1.0,0,2,0-9
105.0,49.16479271689893,388.09258774896915,42.872749530599826,84.0,36.0,4.0,10.676479039754092,9.88773071043558,8.895834880834883,0.6047024592549834,0.6864644441023794,1.4696850106455317,1.0,0,2,0-9
90.0,43.88785034419873,862.3474094598272,36.23774610492416,35.0,50.0,3.0,11.171402252995543,13.124430932439585,13.727171329717237,0.8177412300821776,0.5367990542798973,1.4856531464927833,1.0,0,2,0-9
85.0,48.961529947563456,138.6522791331959,53.68620864290071,62.0,20.0,6.0,5.422024361950016,4.835498607594413,3.990025937532532,0.7327486798840531,0.7387239399072428,1.2096630761056484,1.0,0,2,0-9
67.0,35.126171003498,463.27535027221876,27.725293525296443,21.0,32.0,3.0,5.440325098600336,4.970100309882023,6.872874796488715,0.9096029212143014,0.581157998308326,1.3941627223002557,1.0,0,2,0-9
61.0,31.312752392731753,144.89432691109158,40.70437219201729,14.0,12.0,5.0,3.4498225735638384,3.8622639414006317,1.3401000759661577,0.7869511916133193,0.5857921071777911,1.1460677013801317,1.0,0,2,0-9
47.0,38.98931540851465,188.63546361820406,43.22174007131637,6.0,47.0,7.0,2.8087832025211674,2.5645919279489733,6.2994174955392115,0.9285407515207076,0.30316202469958675,1.6028432663944856,1.0,0,2,0-9
301.0,137.73709112609475,516.3826124495984,35.52913553550598,301.0,78.0,3.0,2.748733576845351,1.8442598425238226,4.840392653674198,0.29920079191250987,0.6073491043027021,1.3285173643845194,4.0,0,2,0-10
301.0,140.4521711156643,374.7310279040772,47.817452142312966,301.0,32.0,4.0,14.105276078880072,15.0546011071738,11.467124463224048,0.29582297947176245,0.6592997068938481,1.6223577605609811,4.0,0,2,0-10
301.0,65.42040005273539,270.3914568382666,31.709754216955208,301.0,36.0,3.0,0.9931788437279336,1.5452220417736047,2.0461985763648736,0.5859899752874108,0.8282384437882436,1.7517211335946983,4.0,0,2,0-10
301.0,79.8921561725315,360.32572483573034,32.41556151017819,183.0,203.0,3.0,1.248581031071789,0.9170957016022566,1.5647302179745435,0.42239820155798574,0.5177565659695758,1.5039027597798331,4.0,0,2,0-10
301.0,73.93895504806297,621.4276000165066,34.18062601085096,131.0,120.0,3.0,10.67203943565185,11.066429927207185,10.67203943565185,0.5037123419532042,0.6323212938181961,1.669662600747207,4.0,0,2,0-10
301.0,225.20168683652452,951.0838747499922,33.382592564765865,301.0,180.0,3.0,3.957169822291481,4.414625071278646,5.095501762707505,0.44879187832858064,0.903458570859065,1.6208428907420054,4.0,0,3,0-11
301.0,93.61625158153434,504.78518786939446,39.78815136236684,301.0,82.0,3.0,14.869086932082821,14.80907490797959,12.16561869770922,0.5076587280313237,0.9056091705024788,2.012605509240275,4.0,0,3,0-11
301.0,498.4138270173487,1933.4950371560803,66.23429056591111,301.0,171.0,40.0,6.836521602354081,7.080188044421556,5.962079391213411,0.35328415294646986,0.655372924228582,1.1550090833893003,4.0,0,3,0-11
301.0,210.72202602290957,895.6799587325743,52.16002570102588,301.0,171.0,4.0,12.806906836547684,13.234094139540687,13.440296486093073,0.2779193320990076,0.46664896921129545,1.3496878216937658,4.0,0,3,0-11
301.0,195.3802923569089,836.6144484088032,38.89984608551717,301.0,64.0,5.0,12.483876158165097,10.098963480160473,9.819683294631057,0.27767163005556533,0.4522072948014228,1.58840970771103,4.0,0,3,0-11
301.0,116.9854943261942,139.64393550657948,47.01929175837335,301.0,69.0,5.0,5.866253888929099,5.866253888929099,8.513247543725848,0.3146690431512355,0.5542331750687002,1.744518600639536,4.0,0,3,0-11
301.0,118.53454569731632,2120.5993850445807,64.08051727900401,301.0,193.0,18.0,4.599171913561763,2.8230524974128484,4.599171913561763,0.4429433380352917,0.3413113419254011,1.451982871657009,4.0,0,3,0-11
301.0,133.89066527744401,649.1047490580639,36.79477120776033,301.0,92.0,4.0,3.758219687752298,4.602703767367359,5.653311714976327,0.3500789613988497,0.40985168338791444,1.4572822821867217,4.0,0,3,0-11
301.0,82.38407503884625,198.70116919994035,41.466433911118195,288.0,141.0,3.0,5.017990029825761,4.226771644333454,5.017990029825761,0.41130917568362996,0.7209520664760591,1.2388334526483686,4.0,0,3,0-11
301.0,283.46077053992,738.3315431807409,44.7031972366051,301.0,290.0,11.0,14.671151026472762,15.27235550703888,16.65359033700788,0.2454565552739866,0.3349996162486011,1.4389987101876875,4.0,0,3,0-11
301.0,240.46127072919654,1196.2730529747885,40.22319997677596,301.0,267.0,4.0,9.584152216818387,7.991136673084751,12.792929762055333,0.27140694816616784,0.43410174276347085,1.3587293483631429,4.0,0,3,0-11
301.0,134.45630335632325,859.5379426491472,52.286515872493055,220.0,78.0,4.0,6.182641062569897,7.121227355358325,9.338328152942664,0.39162994424421876,0.8231274144923512,1.3214342276021276,4.0,0,3,0-11
301.0,280.0970603157242,934.0562202477416,91.09402634949755,301.0,166.0,59.0,11.411352093139318,11.015379866194698,8.425273868730534,0.3006512699436998,0.5656187186563687,1.3788483520481623,4.0,0,3,0-11
301.0,79.40349641008812,382.13058392380356,47.051626818481985,126.0,109.0,4.0,7.871589608587234,6.054363867600126,9.632204954721105,0.40091022314301145,0.6215271894998011,1.3913164583647584,4.0,0,3,0-11
113.0,57.9596229726386,1014.3491199017404,36.16152397640663,72.0,74.0,4.0,7.131291098142129,5.164249638949966,9.131726357560924,0.6084908065878375,0.33052621929977916,1.5493491020719306,1.0,0,3,0-11
90.0,64.88574116224247,338.9367171824488,52.0134637514987,17.0,73.0,6.0,2.0547598508722356,1.5920733270059977,5.034944314090883,0.9243229622090041,0.4260918788605134,2.0471452674255834,1.0,0,3,0-11
82.0,147.96486645994136,478.09976199302446,38.24593442235689,76.0,79.0,4.0,3.351147798760802,1.5889641478323513,4.452082045241336,0.5588164892604133,0.3302795252279471,0.7880411566179434,1.0,0,3,0-11
51.0,33.48271424938455,170.2798162054686,31.521358987509625,13.0,28.0,5.0,3.384645266172388,2.3796446463269363,4.445267045884607,0.9605067415047387,0.5080942964269678,1.533455238391047,1.0,0,3,0-11
34.0,56.10190739575992,1013.6060460663418,41.57041743103308,34.0,22.0,9.0,0.507184095121199,0.6712460944018487,4.278988729619851,0.30658326548834414,0.44592340047700196,1.306224209354677,1.0,0,3,0-11
301.0,424.9578374860067,1498.9283921208462,45.430905621119486,301.0,170.0,6.0,1.8726366857405363,1.8869310615665391,2.97008525473901,0.3034719534688553,0.4821548958354109,1.3355205737340532,4.0,0,3,0-12
301.0,199.63797359900656,755.8311690388498,49.93872009765108,301.0,280.0,11.0,7.9229378597814115,7.353434494708259,10.17417370026522,0.1982450810254061,0.3907489321935547,1.4306485834630287,4.0,0,3,0-12
301.0,271.21159621821664,1023.3009370679703,63.1016010752967,301.0,290.0,11.0,7.32832632138069,8.297192503991724,9.767868707082435,0.21737728393382763,0.26103444519115754,1.479702583733146,4.0,0,3,0-12
301.0,169.14609385631644,482.774831933789,34.54868065548815,301.0,141.0,4.0,16.868956055707386,16.197325120052742,18.684223839996708,0.29593071531581877,0.5074118474565834,1.5174711634702391,4.0,0,3,0-12
301.0,196.58528240728674,247.3745270092995,69.06492941445109,301.0,59.0,12.0,5.964098393229905,4.784824476719368,4.747139459721541,0.21076480067584377,0.46777254298969656,1.2294361543922454,4.0,0,3,0-12
301.0,137.14841036011993,266.03672105467393,75.87385635781895,301.0,40.0,4.0,23.184178252504513,22.35383352443028,22.518772031315134,0.2772851827345144,0.5708433362402049,0.7892858557713326,4.0,0,3,0-12
301.0,334.6206063941657,1020.2312599485292,42.690767620946886,301.0,258.0,4.0,3.1189899520355917,3.0080539120459164,3.2252499353544155,0.22541920793551082,0.3907819952384882,1.3678184475915354,4.0,0,3,0-12
301.0,239.15295033089052,204.9108629085403,27.25473512606548,185.0,93.0,3.0,6.82009283611052,6.568488856659981,5.998238717011941,0.36856666369306024,0.7181026263055259,1.5697434641775172,4.0,0,3,0-12
301.0,48.93768082493673,435.7755445126247,34.59388509443753,63.0,174.0,4.0,9.953984043011598,9.607886920804479,10.61690573569129,0.5467433625558388,0.49471793222289895,1.6247019840028663,4.0,0,3,0-12
301.0,88.46514077398899,647.8090499831835,40.81627668485998,281.0,94.0,5.0,5.795402151223315,8.013812043481131,3.108829963596494,0.5180971588168475,0.8405465094082221,1.6750643859744734,4.0,0,3,0-12
149.0,102.7413271284622,845.7457735345657,49.39494022352141,145.0,95.0,3.0,12.970384309765384,11.94093086641177,11.847062857531391,0.492467935859426,0.6528604233822348,1.868802039607992,1.0,0,3,0-12
80.0,51.547771526540615,354.99209635093194,30.13530635182412,55.0,22.0,3.0,5.591439682228536,4.793987124459559,2.6674323400107505,0.839570901662335,0.9549858590597334,1.3972513055091582,1.0,0,3,0-12
301.0,198.35246932953413,996.6569307126522,75.8498506540608,301.0,227.0,56.0,8.025308636629413,6.623876120251829,8.025308636629413,0.22459916421393672,0.30995406295772066,1.1625146144745215,4.0,0,3,0-13
301.0,215.66616326925822,1206.4013132012722,34.51225398192999,301.0,258.0,8.0,12.81228965624153,12.249398502271012,12.81228965624153,0.2401839454166363,0.3562980907602165,1.4316256039826631,4.0,0,3,0-13
301.0,211.6301661374113,2891.501935126933,99.0617987475252,301.0,280.0,10.0,6.6854319072537525,6.35830565297131,9.566571529803927,0.2995207735976548,0.3477842576698005,1.5055666525563038,4.0,0,3,0-13
301.0,169.95839422377313,440.3578435955912,38.59196511873869,301.0,82.0,3.0,7.233313814029458,6.741360561780835,4.632828667916978,0.21987887464885025,0.9683211806038238,1.8503316872702513,4.0,0,3,0-13
301.0,257.0814290968764,590.5294782923008,74.787841498236,301.0,301.0,4.0,2.2980278850841978,3.122176940118406,5.046961452327154,0.19590343097748947,0.3005655407232562,1.446947998022556,4.0,0,3,0-13
301.0,285.3922845590391,431.63041903243436,53.832037237388185,301.0,116.0,8.0,3.1207078546300977,4.11055413888879,1.729654120999308,0.2735101103079478,0.6043661191244405,1.7576321840211642,4.0,0,3,0-13
301.0,347.58250284875436,405.6048424765671,47.77346467386631,301.0,48.0,3.0,3.6821133787982006,4.64041330644181,4.78120370249748,0.1730452565242011,0.6665388601175192,1.1295008588384023,4.0,0,3,0-13
301.0,69.60491296140056,307.8239796612971,40.437044589653716,173.0,87.0,5.0,7.2780917963089,8.878968204288745,7.2780917963089,0.6464326352641036,0.5471185036456653,1.5500624910894196,4.0,0,3,0-13
301.0,192.09463401767064,912.2911372580661,40.44115521925661,301.0,55.0,3.0,2.396672783566441,2.2453639808786696,2.1575056743898653,0.3735181036015602,0.7237712672429392,1.6193988591736164,4.0,0,3,0-13
240.0,141.06394735818208,443.0730956593204,29.329088393530395,222.0,82.0,3.0,8.534581957114476,6.1600160375502995,6.674151833104209,0.40889297693681,0.677775772566257,1.863715245266578,1.0,0,3,0-13
225.0,110.28266587531927,871.2342086107377,30.714883696990128,202.0,81.0,4.0,6.891506474824319,8.557164111886097,8.05564759360477,0.44258230816594196,0.8617911027045385,1.2790035746558601,1.0,0,3,0-13
178.0,87.12288734006574,682.635834455312,47.08314215305336,147.0,133.0,5.0,7.194960465786365,6.569175986237024,9.496610055884425,0.584773441597352,0.5669248684535767,0.955779149160473,1.0,0,3,0-13
135.0,161.7474322438955,329.81382310244425,37.44455168784419,121.0,58.0,3.0,1.9550683926092127,1.049983731576528,7.996395499043018,0.4911736455972838,0.8639136896037495,1.5470161068783952,1.0,0,3,0-13
113.0,71.72772725414715,352.38999192556946,31.849714103046335,101.0,24.0,3.0,4.859723808551077,6.005985881832723,7.609110340219348,0.6326800660139406,0.5778034987860917,1.4932046576588693,1.0,0,3,0-13
90.0,146.70451250849248,181.78591908416314,41.55368366690136,85.0,19.0,3.0,8.973264874541973,8.719463131111823,11.017089545442309,0.3804472022014552,0.7692955023879341,1.8518672093210442,1.0,0,3,0-13
69.0,37.7326592502445,81.04378377020919,46.28712559013782,34.0,10.0,5.0,2.2486697791585644,1.4813933755172695,3.4323834921785625,1.1064237637450365,1.4306049274184882,2.1488745400845337,1.0,0,3,0-13
68.0,70.10948894541757,117.6908069198025,53.77645548396959,15.0,7.0,6.0,10.057100604614984,9.608401768269303,9.278336476532088,0.956194228337749,0.8966189461129094,1.9613918766141518,1.0,0,3,0-13
67.0,47.13729993351188,484.9995903621967,43.10625659937988,28.0,28.0,3.0,8.033687345660136,9.667833222635963,7.434217674918873,0.7099641236918526,0.578610579665733,1.7018824182397547,1.0,0,3,0-13
39.0,32.88954227629599,583.2403184209612,57.615582728731965,4.0,23.0,11.0,4.542171245650803,3.998600641239467,5.205113817261232,1.1499042104666335,0.8507209678521525,1.4937446372474117,1.0,0,3,0-13
30.0,41.21295102454366,60.401684272380685,33.24182819738455,19.0,21.0,3.0,7.632211779397406,5.661005770700516,9.729630612440369,1.020073924421806,0.7435633045210287,1.7261682655134594,1.0,0,3,0-13
20.0,35.2741976959317,273.09940500403184,19.90437548073647,8.0,15.0,3.0,2.500869952651155,3.082822861954154,2.9522522621739324,0.9353610983866255,0.36848170951942794,1.3147265538862392,1.0,0,3,0-13
301.0,127.08080813235257,363.7049966974104,32.96894380472807,301.0,258.0,4.0,2.1503590553232645,2.2267501121335713,3.192631945323917,0.32268012237876387,0.5041944685198939,1.7830141175723766,4.0,0,3,0-14
301.0,218.36049422877997,656.5877700574939,39.869664158660655,301.0,301.0,10.0,2.7118637617345236,3.47097329699473,2.814008437207559,0.2431268628903975,0.2692820434295329,1.419037197433502,4.0,0,3,0-14
301.0,245.60466972536048,672.7742501632545,38.4635268782533,301.0,249.0,4.0,2.688655072333832,4.062424723158349,2.688655072333832,0.27778040586402264,0.6454050890435868,1.2632701363479517,4.0,0,3,0-14
301.0,162.57837995169987,528.5487655714231,34.809354181303235,301.0,214.0,4.0,2.597870563119111,2.5681499729341217,2.041065825133794,0.2693855301661012,0.4241004873257146,1.5994343145227474,4.0,0,3,0-14
301.0,124.47944266251653,595.2012591934965,34.21706400320881,301.0,127.0,3.0,4.801607185260464,5.2728896591353935,4.801607185260464,0.3882778039298522,0.5686052071283973,1.738087563322581,4.0,0,3,0-14
301.0,61.00418915095832,943.7153731950586,54.8978759030734,167.0,130.0,9.0,6.2197653854149735,6.2197653854149735,6.2197653854149735,0.4430896884561123,0.5635851051687806,1.578260156555875,4.0,0,3,0-14
91.0,50.47858169776661,91.7330389048175,46.390702890928424,45.0,18.0,5.0,5.236831481600023,5.060251925178181,4.574966270097525,0.7459439293273344,0.9962766631058686,1.7139871148748602,1.0,0,3,0-14
67.0,35.62762141798413,1145.7088510125102,40.579721880172464,16.0,40.0,6.0,1.0494821791862008,2.713018549258345,1.606394084287985,0.6088945006514237,0.5191498156696769,1.7979494733510135,1.0,0,3,0-14
58.0,47.44778142894672,55.76955474763862,27.98844024958262,26.0,7.0,3.0,3.4793945704824907,2.4184506401108603,3.513832212614258,1.0042219744266847,1.3819902465991765,1.761318052725097,1.0,0,3,0-14
48.0,32.700707703365886,255.4725261629735,60.04522964050701,6.0,48.0,11.0,2.2265312942171382,2.174928787850563,2.8848308729240775,0.7262935743645599,0.2902707223852914,1.264672606693251,1.0,0,3,0-14
34.0,37.38816687565455,233.34651572308482,26.231467087591174,8.0,34.0,3.0,1.6669766373616184,0.9763211698178577,1.758634527131587,0.5916333995669446,0.2620426476702316,1.793447448228676,1.0,0,3,0-14
301.0,125.16063597740451,613.3477762526254,43.77105408434005,301.0,301.0,10.0,7.616067018189331,7.067563763177548,6.5151196449634385,0.2670431217507584,0.31109675428105843,1.6042107097512082,4.0,0,3,0-15
301.0,185.02672508259818,711.9844362499402,25.870615289633026,301.0,291.0,3.0,3.3184439131518477,3.1873625036103697,0.25024216139535976,0.2372958065419009,0.38091906535553466,1.9340619753831507,4.0,0,3,0-15
301.0,213.70890561450946,520.9260544186455,35.35185702938248,301.0,253.0,5.0,2.035659351184171,1.9821831134722743,5.314428637475334,0.3128328165487348,0.4400521379570832,2.196240522826983,4.0,0,3,0-15
301.0,106.42166128521089,299.07335532192315,59.055335226137345,301.0,185.0,4.0,8.392687353370732,7.642462766141398,11.04373486661594,0.26307970548883536,0.41170877014034174,1.561680504224143,4.0,0,3,0-15
301.0,139.19894200473868,702.6256821479747,36.89951767124392,301.0,89.0,5.0,16.317438404069826,14.964795021551451,16.317438404069826,0.33641114716714376,0.6568430907374256,1.428564782338722,4.0,0,3,0-15
301.0,143.5631033608349,1254.1966072674945,113.2826652072423,301.0,177.0,6.0,10.618458825549649,11.915934256676367,10.618458825549649,0.25298839222649633,0.35986008598276015,1.059570548043096,4.0,0,3,0-15
301.0,124.93403885032018,1224.2266645149334,51.06162955484663,301.0,137.0,12.0,7.5843347794267,7.693052023572151,7.5843347794267,0.37823296258809513,0.4794595625105524,1.6854224502709723,4.0,0,3,0-15
301.0,213.91677646287675,200.9524182449504,30.934451671539836,301.0,162.0,7.0,1.8622672750400344,1.9677675565616828,1.8622672750400344,0.22764793171058634,0.5587212646986067,1.614181849301224,4.0,0,3,0-15
301.0,356.60863676279206,403.78766070573755,30.60554994317269,301.0,301.0,4.0,9.299807376522702,10.486050593719408,9.299807376522702,0.18653682871299868,0.4298310236204253,1.747731648510052,4.0,0,3,0-15
301.0,76.87233202705137,842.1516219738934,49.978395772684166,244.0,149.0,7.0,2.0678480201020064,2.5453593102759933,1.2830372778431853,0.4360946432361023,0.7195489334923721,1.5225947693293818,4.0,0,3,0-15
301.0,120.42822496962786,474.02768642026115,61.329523815943325,285.0,87.0,4.0,6.122266191079799,5.405394177592877,6.221889356835853,0.3523419496176571,0.6526341855455213,1.4205237804251822,4.0,0,3,0-15
170.0,135.37555837771893,300.6180691791984,33.54428872408702,163.0,106.0,4.0,10.711934481576597,10.795844141485883,8.037405430956332,0.48255840665585026,0.4649199903527521,1.2744493257163088,1.0,0,3,0-15
117.0,54.351159968509215,99.15156705450697,49.828447236972565,62.0,15.0,9.0,2.9625081246247693,2.6943148172758584,3.9109519563900434,0.6404279936517796,0.7013746298669925,1.4231164266294294,1.0,0,3,0-15
113.0,77.21257067673783,113.11332154601965,35.02685376602915,86.0,23.0,3.0,1.0080608570441445,1.2316321982797818,2.1450945920485176,0.6125470280120625,0.7793695784386492,1.3964455654478996,1.0,0,3,0-15
110.0,55.30976594386013,245.5366669990285,31.552915030304842,76.0,96.0,3.0,3.198050051758859,1.8376797998137846,4.647121385452392,0.8207870466214416,0.6333145523888747,1.4974695966688314,1.0,0,3,0-15
72.0,35.24559107356511,296.871341665579,37.034752049447285,17.0,30.0,3.0,18.18109562206436,18.576619703274627,17.20932137903959,0.7994062828973021,0.6686684487055478,1.2175232400577043,1.0,0,3,0-15
41.0,37.86679876794799,78.33672796420065,49.63944465743776,15.0,4.0,6.0,2.4933972686091397,1.3798248684537457,0.20001593479602672,0.936889376034712,1.2350690129812918,1.395207270331443,1.0,0,3,0-15
34.0,43.19526680015419,198.1743098541676,30.581385554690357,12.0,17.0,3.0,3.3426761595386782,1.9570515680873697,3.127527569671085,0.6933447072168928,0.36959077251130024,1.3605726812234424,1.0,0,3,0-15
25.0,33.42469467824226,576.9051819962023,40.02727833509644,10.0,15.0,3.0,1.856596404596977,2.0358665689531685,5.84072659236376,0.9547895790514045,0.3021576242228842,1.6139146602551402,1.0,0,3,0-15
301.0,142.1793026382248,865.040103536475,40.12035750922536,301.0,49.0,4.0,3.2435848449941926,2.857430737772394,1.9524045010536524,0.3423411633075861,1.0894661062275597,1.4019332467363133,4.0,0,4,0-16
301.0,151.77034078882042,646.6481816574662,34.589759124053785,301.0,135.0,3.0,9.720409869842628,10.106248687501594,9.720409869842628,0.3274451556615373,0.5790852867735017,1.7779236525682893,4.0,0,4,0-16
301.0,179.25465559020344,398.0696787314868,48.058582741640244,301.0,242.0,5.0,13.41054615935649,11.212861267587522,12.978638578161664,0.3994900899482627,0.44619447579170574,1.2892536231435796,4.0,0,4,0-16
208.0,113.55957673991068,298.0276622421085,28.959947224836707,201.0,116.0,3.0,13.127131462887931,12.079957567985113,10.735471970846397,0.542433364649716,0.8268157645957736,2.1191085639113245,1.0,0,4,0-16
192.0,78.53736372580927,374.57814185498535,68.25737021500458,121.0,154.0,5.0,18.108544949036684,17.508904182693268,22.978495275208218,0.5518195601229471,0.469157627446574,1.9362953555156512,1.0,0,4,0-16
156.0,70.2690331726529,320.04674627130504,37.07696334766534,149.0,39.0,6.0,1.8102268934571375,1.5280859607424095,2.4533767334627132,0.5554951794162443,0.6433426554677677,1.8657267746152533,1.0,0,4,0-16
55.0,52.760254752996026,79.58155877610298,46.55241215416198,23.0,7.0,4.0,6.2358944000594825,7.172423721427603,3.087564127849451,0.9341382568196115,1.3682084476486838,1.6891925281985292,1.0,0,4,0-16
301.0,175.3344807984517,444.9816977206317,33.313756938416084,301.0,211.0,3.0,3.3196124639274722,0.224691893471982,3.314788943200473,0.33250012217514385,0.47929059226202886,1.9441402691919674,4.0,0,4,0-17
301.0,117.8262041115648,652.0474005871088,34.46256818426495,301.0,132.0,3.0,5.3229955040486825,5.541710858743495,4.425089890148345,0.3765273360370166,0.6691260370226582,1.8632607945768191,4.0,0,4,0-17
301.0,137.2313499078872,1048.9097366599926,32.189751985040736,301.0,159.0,5.0,3.5134951898636158,2.7759341091867853,2.284668376631834,0.2703554613282164,0.5237632862437173,1.7301248127202988,4.0,0,4,0-17
301.0,131.6162930732678,261.4050243485066,26.255794056160518,301.0,81.0,3.0,2.771578268711808,3.2433359621263818,2.979124122870386,0.31931750503302614,0.5635926149687959,1.3722587817308438,4.0,0,4,0-17
301.0,237.2928436363313,476.6541875082386,43.315226473140825,301.0,301.0,3.0,1.5931787103094626,1.569290955227692,1.5931787103094626,0.1998069596854386,0.3601975063589075,1.4350495750557408,4.0,0,4,0-17
301.0,129.65957103135213,249.759312706181,37.7475933567978,301.0,77.0,4.0,2.673229296808536,1.1130713785410433,2.673229296808536,0.29087912279793326,0.6881872162930052,1.6590500151942749,4.0,0,4,0-17
301.0,97.19309373968365,250.9152694952215,127.66075071340647,301.0,6.0,11.0,15.605850181752022,18.378821804220305,15.605850181752022,0.4338306121874632,0.7321695122248401,1.5367405542575214,4.0,0,4,0-17
301.0,239.59573188352957,509.52723627659066,34.21208064721419,301.0,248.0,3.0,3.3395325388089345,2.7860772301342474,0.9268078703788873,0.24354106579495916,0.517341231743742,1.7377627591753506,4.0,0,4,0-17
301.0,158.5746334467537,469.2997567433407,35.91910716990656,301.0,124.0,3.0,0.9758756627472228,1.2755774662244004,2.412788596497459,0.3297007691914717,0.6027194266629841,1.646791244741415,4.0,0,4,0-17
301.0,316.15886831019594,699.5089275992472,31.658973395940304,301.0,233.0,3.0,1.677412546329496,1.7221576545149848,2.041243533794338,0.2662635559683261,0.39832420666922025,2.0932101598643698,4.0,0,4,0-18
301.0,263.5938740933942,335.5194461492588,33.632811066438755,301.0,239.0,6.0,7.476385789732554,6.927001060726154,5.771337620479574,0.22777170552588422,0.48997905055761964,1.4838483818581423,4.0,0,4,0-18
301.0,284.87366362603234,618.0037173391446,32.78901328761001,301.0,172.0,3.0,12.576337499404737,12.905015980822158,13.03017191742151,0.22239675055920016,0.47435090042459044,1.607805469957806,4.0,0,4,0-18
301.0,167.10621854315596,248.60646631710364,51.574935514246775,301.0,138.0,8.0,16.398782552015746,16.915876306017626,17.911842645690196,0.28688600750462295,0.6464107264149666,1.4863623665195738,4.0,0,4,0-18
301.0,132.72581418070777,255.76519046224746,45.60228769028063,301.0,87.0,6.0,3.496774973681913,3.9586333282211594,3.984712142344012,0.43156512206094316,0.8426614431835399,1.703069355042493,4.0,0,4,0-18
301.0,123.44696370681815,214.7692903165228,36.0288894659594,301.0,35.0,4.0,2.380315272479,4.16640383671975,5.287041724478357,0.33114081750348345,1.2244018620472918,1.4583598520549301,4.0,0,4,0-18
301.0,133.9022566325549,346.4252555089052,35.16247636458501,301.0,62.0,3.0,2.2106396075492034,3.0686730731945175,2.2106396075492034,0.25626148323923986,0.6070185326140004,1.7333178497648396,4.0,0,4,0-18
301.0,200.0161401474656,906.4919572777831,40.6448595371006,255.0,301.0,3.0,3.1632823439057,1.463271866800229,4.330835366094154,0.28383743209113543,0.27998583064829846,1.7136801197473175,4.0,0,4,0-18
301.0,153.15657087709957,266.98692956312243,38.73609736801635,301.0,77.0,3.0,5.0954858950446225,5.275037731438364,5.558263366421296,0.34024114549048007,0.8041853097437606,1.6001624932051728,4.0,0,4,0-18
301.0,131.33159937955182,258.0051722733394,32.6285221357134,227.0,36.0,3.0,3.835180154023909,2.5386883419911492,4.459941851056754,0.37311067245652835,0.9787971970172066,1.82735446617048,4.0,0,4,0-18
219.0,86.42989940301129,244.40814376394226,40.173630829366644,138.0,46.0,8.0,25.947085774333843,23.43346385994512,26.501506885205536,0.49174055514956544,0.9049671104079768,1.2730113687903823,1.0,0,4,0-18
216.0,67.93555028475781,283.4249390599225,47.515769244422685,66.0,66.0,4.0,13.208841506575654,9.106043410186109,10.591146912576772,0.711829294281577,0.9452038405157123,1.5311632349959547,1.0,0,4,0-18
211.0,121.24659672282469,471.1341208825127,38.50977126385483,211.0,58.0,5.0,4.557814801111824,6.367724634366142,9.47206870966186,0.5192375476956705,0.6309714864724146,1.5226144556973238,1.0,0,4,0-18
177.0,134.00203401611128,214.09055205037149,46.00256048297006,157.0,76.0,7.0,11.14252309902974,8.075189371146129,10.098145280906591,0.5177153177813439,0.9014575446138615,1.6706783368929923,1.0,0,4,0-18
148.0,64.05724513108797,289.23134406607824,51.525777714176655,92.0,72.0,12.0,1.015588923309788,5.597310768352968,8.33578777948949,0.537761919416587,0.7788864990278749,1.9701558189187336,1.0,0,4,0-18
145.0,54.69039325035475,167.78403951910954,30.23106789631595,100.0,66.0,3.0,1.9104958660832285,1.1925206134005824,1.4278341580389289,0.8044645681363622,0.8150222489992853,1.9171452098665527,1.0,0,4,0-18
134.0,68.65356103188707,304.66927929539486,51.967937290189774,128.0,22.0,7.0,10.488771038804389,11.454742682878152,8.039013151877622,0.5947227476033691,0.798420448806674,1.4932695447479112,1.0,0,4,0-18
134.0,54.48825023008094,75.35365162803166,32.498889973091,85.0,14.0,3.0,9.376413754478511,11.757602180905945,6.606412998413606,0.5786012565373893,1.1113567405596774,1.9077324508092743,1.0,0,4,0-18
112.0,53.28862469229237,124.67063315917873,42.978678720849764,89.0,53.0,3.0,1.213652552696573,1.973962773356966,3.9747485453981026,0.62443630103032,0.6887852887567992,1.7928017627515467,1.0,0,4,0-18
49.0,30.323237506888912,68.25456871700624,33.90871291501468,15.0,8.0,3.0,1.3975330984073528,1.2164807550285242,2.7006723473618814,0.97434318530605,1.1829787855440064,1.8340793843570347,1.0,0,4,0-18
39.0,102.37876323227503,126.7131240675661,30.488006043066342,39.0,38.0,4.0,8.510883648394808,8.097650032793247,7.950082244088333,0.8539785324131847,0.6900637930331198,2.0366497500343823,1.0,0,4,0-18
38.0,29.746955004345036,123.17168361714755,52.0532150189015,5.0,33.0,3.0,5.482620078912566,5.572825004461685,6.415239424636911,0.9576453730713559,0.5980629680364408,1.868259386144681,1.0,0,4,0-18
24.0,29.349377830138366,466.9789240515448,40.440525369428826,5.0,24.0,14.0,0.5710262624722777,0.6699212055681746,3.749105034505705,1.0084274557766366,0.5157272173284149,1.050373657751913,1.0,0,4,0-18
301.0,275.83575669945094,545.4425514246745,32.53383697097073,301.0,301.0,3.0,1.657393380593969,1.5931253402427998,5.282652294728445,0.19213862241015078,0.3805576623106761,1.8016488312178331,4.0,0,4,0-19
301.0,119.71638656415558,984.3195588527265,98.24086823678573,301.0,301.0,13.0,9.10740380003329,8.711468685263048,7.604292983662399,0.3224369783847637,0.2596384454255156,1.4357300421186086,4.0,0,4,0-19
301.0,134.3773255289776,710.4439283023377,49.11990898691212,301.0,193.0,5.0,4.072885727046499,4.969293804406908,4.072885727046499,0.26117224175814147,0.3096559737865484,1.5312615583390383,4.0,0,4,0-19
301.0,230.1199267786781,600.4676952036201,64.99664969723113,301.0,92.0,10.0,8.319952878125758,9.114381135638192,8.319952878125758,0.2075259757552603,0.4922016894532055,1.635834916812322,4.0,0,4,0-19
301.0,263.1744485570162,364.1744829290428,48.150935318932895,301.0,92.0,3.0,7.456246857915811,7.108306156748577,7.456246857915811,0.2687286550002217,0.5345923180247467,1.6824623896827184,4.0,0,4,0-19
301.0,434.9150076337383,1384.4777252816436,52.17142417961564,301.0,137.0,4.0,3.211367524452122,2.7246681684240945,4.957095804256734,0.2247617926077548,0.5305242310476561,1.7635885868552494,4.0,0,4,0-19
301.0,256.0241357100297,428.4268756190143,40.37698934494199,301.0,207.0,7.0,10.045020427577086,9.363679980311483,10.045020427577086,0.21242382755824465,0.5766843705262688,1.2415563591504941,4.0,0,4,0-19
301.0,146.42896904883787,297.29163564878854,31.878552836080306,301.0,169.0,3.0,2.567852999157458,2.383587690660428,5.065498571188463,0.3562072926152897,0.46905207618550404,1.5174651934155057,4.0,0,4,0-19
301.0,206.4790483561089,1488.4513034118386,44.49681949842775,293.0,185.0,3.0,7.610841303478347,8.713247713082946,7.610841303478347,0.3405850689094118,0.3851937213164206,1.4625681167934508,4.0,0,4,0-19
184.0,51.84346174485887,1113.96544314936,41.232243489293126,59.0,95.0,4.0,0.8320130401033651,1.267067793070514,3.308231647994613,0.6234157580000848,0.71319937677734,1.5912713168845805,1.0,0,4,0-19
175.0,80.4420935806387,353.21191877998905,40.646673345593655,126.0,29.0,9.0,17.537479307251083,16.098964904450416,14.53779506273689,0.4949875565011583,0.6831090846380748,1.6510554387875833,1.0,0,4,0-19
108.0,121.57904808585853,247.25482601132435,63.288200712545525,89.0,31.0,4.0,9.047154140908457,7.4564424261791435,11.299801428438707,0.46348199550476493,0.48646696113209104,1.404605060837943,1.0,0,4,0-19
80.0,49.56734352792687,86.735476322692,47.78954815068214,60.0,12.0,6.0,4.511826087529402,2.0527696253564525,3.813103430505256,0.7356495329733305,1.095393983650862,1.4770881412509151,1.0,0,4,0-19
51.0,54.87505518948856,68.80278881736497,91.47798598229598,30.0,3.0,3.0,1.3985878999488315,1.8900766371769138,2.513290880704427,0.8177687569417418,1.4035559388452843,1.5626665692143893,1.0,0,4,0-19
301.0,220.4259304010746,449.2145769428679,64.14412939979835,301.0,225.0,25.0,1.5974989618668698,1.970730177991247,4.344053719165235,0.24740193886671744,0.33329303883034833,1.4879279261425933,4.0,0,4,0-20
301.0,132.93960345596759,167.10260055826214,56.4163276219022,301.0,135.0,13.0,4.0650807981655115,0.7320702663708498,0.25473527007423696,0.38128085261658756,0.8326867670651289,1.1870807723518162,4.0,0,4,0-20
301.0,225.84441018377717,557.5511128561859,128.17324220331284,301.0,301.0,69.0,8.043853202191215,7.324437103995258,7.15173202478843,0.24260498831730642,0.49484909535669885,1.3711223172219322,4.0,0,4,0-20
301.0,166.27476942375398,338.4633288851842,30.052527960656636,301.0,176.0,4.0,0.5628158287821814,0.84134637803169,3.475560374084311,0.21882666039014556,0.5272813082579659,1.4249412585890662,4.0,0,4,0-20
301.0,79.68573186091139,224.64048332057914,58.153916308870215,301.0,68.0,12.0,10.48427782182891,8.972210927014276,10.500195709560062,0.35386640709768663,0.607193853554269,1.6784472271207573,4.0,0,4,0-20
289.0,93.18513855829401,304.33711760032514,129.46950142508067,206.0,52.0,17.0,9.477536157146798,9.531504434668735,9.70852223164165,0.4828663460843628,0.8155872309218196,1.410512208174253,1.0,0,4,0-20
245.0,115.87831647847325,255.37370428484363,53.051790455318795,156.0,111.0,4.0,3.0304677506968862,3.1006079660803256,8.262903694344272,0.5630649689505142,0.8575784598825215,1.8144838823314162,1.0,0,4,0-20
185.0,60.08599139502249,160.6219857500874,29.029772374758664,154.0,46.0,4.0,22.24632459099042,21.123380015880407,21.230756037237942,0.5240645486685048,0.9643070053253078,1.7091783711151176,1.0,0,4,0-20
161.0,74.42561533989796,155.29810721167064,56.62316233846699,151.0,63.0,11.0,6.053391840135677,3.5582914924740607,7.528393322856584,0.7100639120548117,0.9145293350385445,1.7899687655574887,1.0,0,4,0-20
161.0,69.3876561134982,415.4473630008297,42.763955125782715,149.0,56.0,3.0,2.77755863891449,4.97359983332883,3.190812824111596,0.45123302105702406,0.8547227079885976,1.4674184711583804,1.0,0,4,0-20
159.0,51.907529813632976,534.870015337538,56.28369564371783,77.0,115.0,5.0,2.172918412308633,3.2508288172394826,2.688916948874011,0.6476921109429166,0.6944172841246461,1.6882800039184442,1.0,0,4,0-20
154.0,37.6466474482228,92.95919374869753,35.42822569127668,49.0,9.0,3.0,9.681936070879512,10.173684536014292,10.898848392291864,0.7883522488729305,1.4986252534103992,1.9172114396750584,1.0,0,4,0-20
125.0,52.17962387162177,308.441640219917,54.58541554696054,65.0,48.0,10.0,8.018439920080851,8.338426060072267,8.71297872561975,0.6697849177165467,0.8419857645858367,1.54016778721688,1.0,0,4,0-20
108.0,110.45798050983208,138.62316770521772,36.37711902302362,103.0,65.0,4.0,3.9967873115486596,5.391604234492457,6.843844853023367,0.52933658287231,0.8993762048726861,1.4902604764705,1.0,0,4,0-20
42.0,38.34212270594317,312.3951051651454,32.91357396002061,16.0,32.0,3.0,4.433733412901905,4.886502793679921,7.979009095302389,0.9934591305296047,0.4356252427306097,1.7071637482514366,1.0,0,4,0-20
301.0,130.36674727078508,927.2316137682144,43.00099609927223,289.0,76.0,11.0,16.989332856002417,16.05696160985243,15.947794441731757,0.38610188228738435,0.9684145768091281,1.8560906681349814,4.0,0,5,0-21
301.0,114.99166590997129,280.8050099262899,50.55745708403739,295.0,66.0,5.0,9.195810978570542,9.633051809750958,9.195810978570542,0.3151900570693752,0.8950877090827195,1.5664433434583498,4.0,0,5,0-21
301.0,160.03592812249082,528.9075875148891,29.150763315339514,301.0,301.0,4.0,0.3156294885354857,0.5972258403444087,0.783958685856099,0.3650211279009421,0.4209849305099087,1.7446761534631985,4.0,0,5,0-21
301.0,127.30022058245996,230.99004507269535,44.03290144148677,301.0,225.0,11.0,9.061326618791261,8.784037366509073,9.061326618791261,0.42917280185627654,0.3843585431154112,1.5208053688514371,4.0,0,5,0-21
301.0,80.30087229779986,398.4764424144481,47.169346052146075,301.0,242.0,6.0,0.4924177096737867,0.07321584881112733,1.9988879658172911,0.3839521058792679,0.39227855345709545,1.4657477939730468,4.0,0,5,0-21
301.0,204.20133620085673,589.2112599692808,35.49121338649954,301.0,136.0,4.0,3.594023714787292,2.0342507861150554,1.0739678522124796,0.30322247754515624,0.5095865117263564,2.0537812902349373,4.0,0,5,0-21
301.0,109.79795793889888,522.1369193026364,40.87455166273181,301.0,245.0,7.0,0.8333663132075521,0.910700042764917,0.8333663132075521,0.42058343644090623,0.36605670056921336,1.0746736278040339,4.0,0,5,0-21
301.0,216.29007015531892,714.3981691051099,49.48347079803954,301.0,301.0,9.0,12.639545115653219,11.879932394173123,14.309691216243273,0.2435879960815042,0.41163868800892495,1.7147139109890999,4.0,0,5,0-21
301.0,137.1577858797594,322.55376353447997,66.43260149182004,265.0,119.0,15.0,14.076268590324647,13.494913080619682,13.318667177883173,0.39698395610318354,0.7705890543425618,1.2133411691222413,4.0,0,5,0-21
301.0,195.43127906304503,992.3774415648353,59.128013553237025,234.0,217.0,5.0,1.7658091791050559,1.8680133279649194,1.893163735489661,0.38153044810050024,0.40879099696733995,1.252669457403668,4.0,0,5,0-21
254.0,79.71351353044786,382.34325698578084,42.00721764935242,235.0,71.0,5.0,7.875567680343041,1.9146900269564653,5.662216259993401,0.4384876800412354,0.8858830466515795,1.588959391425741,1.0,0,5,0-21
230.0,137.2079743840388,601.2185621368026,31.056652836726037,230.0,95.0,4.0,18.935031568935347,16.251263688820224,16.74093165757498,0.4106117735110282,0.5129199645852967,1.4551922977789484,1.0,0,5,0-21
219.0,72.15016989942984,203.80398708201952,36.98627208697681,130.0,55.0,4.0,6.3107359790229784,7.440206043380128,8.526581779146799,0.5340825901872962,0.807810655965025,1.3119793584032655,1.0,0,5,0-21
215.0,184.98668094151213,445.9244848523682,36.85397913343311,188.0,161.0,4.0,2.639967191696103,5.092044539669242,4.826035452916073,0.3684466255424771,0.4979366976554819,1.6396783408863855,1.0,0,5,0-21
210.0,89.30548754270566,578.7080722558998,63.31884584215905,131.0,57.0,16.0,4.870421147738301,1.1501112049073847,1.7136491202628195,0.509889992639273,1.1111660863425958,1.4951595846670067,1.0,0,5,0-21
183.0,104.16679479716467,308.69991453864145,47.97169101541453,145.0,58.0,6.0,16.893709236103252,16.788576271891785,14.999924062539929,0.6258370101452154,0.6982929868779905,1.70474242247331,1.0,0,5,0-21
140.0,55.32673870509122,568.7313469156283,43.19127897178005,135.0,90.0,3.0,3.4845852054232442,4.48762998774213,4.5624716474139415,0.49637941955985904,0.6667413095393155,1.3319050665228354,1.0,0,5,0-21
89.0,36.9313226908073,362.39782701500906,45.70369608791891,51.0,64.0,4.0,9.426363479938708,9.225432171983863,7.853195320147519,0.8719802771173635,0.6482800527133119,1.9176949715253462,1.0,0,5,0-21
79.0,80.20492005159326,135.7488313170641,34.1272439407156,71.0,50.0,3.0,12.297527033463844,11.345259742267505,10.856775560921845,0.806752027086269,0.9331598294302897,1.495972083088565,1.0,0,5,0-21
75.0,37.13850762535058,184.5129284022154,29.260731754724542,35.0,75.0,3.0,4.928098406313,5.012480128952944,7.105700664001555,0.7210133127098407,0.2655305638027878,1.6108482910911701,1.0,0,5,0-21
58.0,35.695828759990206,241.69296561916403,44.770214895076165,17.0,17.0,3.0,3.2693352538872253,7.505256667195846,9.70049005117826,0.9776000070969477,1.1104072792873507,1.6189108700316635,1.0,0,5,0-21
55.0,34.56993016060263,151.96342886260538,45.60645604576864,21.0,19.0,7.0,7.460296291136579,6.502817034254396,3.571514445443893,0.8057490628473308,0.7090910994267213,1.3106097255114544,1.0,0,5,0-21
55.0,84.71755040976416,1063.6987716158687,35.7541146400343,40.0,54.0,3.0,7.718597843859632,9.93040679846039,7.718597843859632,0.9242282496106677,0.56743240774107,1.797706725693043,1.0,0,5,0-21
33.0,33.614985841442675,382.8231328174767,38.1994477966675,12.0,21.0,3.0,2.060113851695949,0.38362902770436524,4.887682096675946,1.1466644493570204,1.1591028569583142,1.5376195874568157,1.0,0,5,0-21
30.0,35.72591236177499,52.7888524944167,45.55121080100736,5.0,5.0,6.0,0.9421518258353968,1.0993842351629226,1.4245650651467707,0.7395401959588478,1.165955912313387,1.326075351824089,1.0,0,5,0-21
301.0,116.9766870039327,201.08210683673698,39.79059483875166,301.0,40.0,5.0,14.918959523459337,14.669148935411359,16.46019682482545,0.36806429681569447,1.0192144047051375,1.7687487865053133,4.0,0,5,0-22
301.0,287.85793528667807,378.0550993810549,31.477477390741868,301.0,290.0,3.0,2.523021624704162,2.0031132984520847,3.312445432366209,0.18957579775005237,0.3615940009455021,1.6519702027212722,4.0,0,5,0-22
301.0,205.7914024676984,706.3404509550846,47.16375236709041,301.0,177.0,3.0,2.655868549463568,4.629595223384643,3.8813920596848877,0.3079790006730415,0.5628910182192982,1.7006976001428538,4.0,0,5,0-22
301.0,143.80996858626398,181.1866776037732,35.55991275336856,301.0,59.0,5.0,8.086818000775263,8.663971852167197,12.412908826536874,0.2789130608451689,0.6645025515664937,1.1516898181659079,4.0,0,5,0-22
301.0,197.6136740900657,450.86628006696486,48.61054646390539,301.0,301.0,12.0,5.861467491248127,4.641607830008424,5.861467491248127,0.22431066043601172,0.36256544147830105,1.7897633658330128,4.0,0,5,0-22
301.0,255.01486921150374,486.0741429644804,45.154216909352364,301.0,129.0,14.0,1.9211831365533798,1.5392936430380881,5.308152571320348,0.2484723146361641,0.4364626279481763,1.2548613178527623,4.0,0,5,0-22
301.0,155.66794524727882,1606.6826606164313,35.154789885291855,169.0,153.0,3.0,4.953048963861932,5.0647980467356435,4.953048963861932,0.3686985586661453,0.35746994918582614,1.5519359530253205,4.0,0,5,0-22
259.0,117.63412764831398,219.54670211405133,34.381484845523445,249.0,67.0,4.0,9.634333088034102,7.636704808876978,9.337734682020283,0.44483681918635337,0.7875135047254641,1.783982622707495,1.0,0,5,0-22
136.0,86.89493082240435,222.88731353300727,35.880167668815105,125.0,55.0,5.0,2.79809355990936,6.275535400505487,1.4293747491836133,0.6396418277921878,0.856630520797195,1.6836346847474426,1.0,0,5,0-22
99.0,84.72173869631837,101.86864706106932,43.230684093450634,75.0,21.0,6.0,4.294316397681388,6.110282184563283,5.913708225115368,0.7095156774798785,1.2169696878621095,1.6650576814769464,1.0,0,5,0-22
98.0,45.89592689528934,164.59471139952433,53.8426866574738,32.0,67.0,13.0,7.174718563966581,5.201771638209804,5.678582355997749,0.900454269526368,0.6259426806048358,1.512055922343365,1.0,0,5,0-22
32.0,55.863130070424006,95.45059376939471,31.57500195979818,32.0,12.0,3.0,5.71952488231798,1.9476321422106766,3.5742219619009736,1.0417101293178754,0.6621688241937872,1.5337439669863013,1.0,0,5,0-22
301.0,402.76388660528386,1031.3411587107148,44.564129648103105,301.0,301.0,5.0,2.912931865563716,2.7204850427693663,2.5606951243223603,0.1823616259435201,0.2827280468260551,2.0370930548676913,4.0,0,5,0-23
301.0,236.0890878195732,358.96768770457754,38.4776206064647,301.0,148.0,3.0,3.6667004601946447,3.6613070584826617,3.9106801228407906,0.22147129615014005,0.5793932764786018,1.5934281085266724,4.0,0,5,0-23
301.0,221.90610876753848,281.87598121702206,56.69998833618681,301.0,151.0,5.0,11.686367259197727,12.662518667144424,13.039127878533321,0.23220178915690629,0.776392220164983,1.6545021724195883,4.0,0,5,0-23
301.0,141.63602880390863,518.2336638392965,49.34464597746398,301.0,66.0,3.0,11.167041598761102,13.389657022361982,14.570550936058495,0.36538298849478507,0.7971348768987273,1.7102780302869969,4.0,0,5,0-23
301.0,199.4825865754913,627.122352348129,49.29053363974019,301.0,106.0,7.0,5.293972003862088,5.214936867184777,5.639219796355783,0.247348918556164,0.44471993670719856,1.1590923837786047,4.0,0,5,0-23
301.0,252.34250988283162,825.5859520467004,58.10964082560014,301.0,168.0,4.0,7.915671182440394,8.00709124689767,7.915671182440394,0.22791809372078697,0.491314126346098,1.6076251972524123,4.0,0,5,0-23
301.0,267.06788590377283,561.0249290219291,48.14929666310698,301.0,145.0,3.0,11.029718032107356,10.60034792940341,10.62732858132958,0.28569905302073334,0.5720676076902774,1.776754282303424,4.0,0,5,0-23
301.0,194.1377800512231,562.443130240688,45.1386328315406,301.0,301.0,3.0,5.582637078450716,4.163917108127805,5.34117469727196,0.33370695348141904,0.2947379405473883,1.6396924240263904,4.0,0,5,0-23
301.0,108.25374085236783,452.93822395731723,39.068204638025904,301.0,63.0,4.0,8.201486967798406,9.032984289683514,6.068703408703208,0.4048246531607569,0.8913661796597672,1.2932819687314416,4.0,0,5,0-23
301.0,77.19606442846451,281.6532798894258,47.582750743364656,163.0,31.0,13.0,3.5883792103155194,5.119391457862023,4.616720563622119,0.4011649841953456,0.7425246489792495,1.7701950217010942,4.0,0,5,0-23
301.0,191.72942851052863,581.2525483002444,58.579894299338896,301.0,159.0,3.0,6.551941762744368,6.319479851291772,6.551941762744368,0.3324692192285614,0.7133834801421728,1.5906872626242023,4.0,0,5,0-23
209.0,125.13698160962613,667.6061956736921,81.83124900600382,183.0,48.0,4.0,0.5383116916532434,3.4487989738579086,1.175972994178681,0.41480683114329925,0.7315894782170628,1.3406279393742937,1.0,0,5,0-23
82.0,49.89922678154248,88.12341919959958,36.157034283343386,48.0,11.0,3.0,8.980013114280524,6.403936345329131,6.283119474885231,0.7371552636002531,0.8553479944303393,1.3920836623524824,1.0,0,5,0-23
34.0,34.52794143339415,205.3307940496724,45.28829497844556,31.0,34.0,4.0,1.6537484740278774,2.954262593137617,5.456407523508597,0.8889527255169345,0.7792588024732351,1.8192576630203012,1.0,0,5,0-23
26.0,94.58645739546887,948.2335925459661,43.55791497046688,24.0,25.0,3.0,1.1358063357206318,1.2783312788930001,2.3068774967590784,0.578633111467657,0.32700962669747957,2.1775185974374973,1.0,0,5,0-23
301.0,168.51884791109342,356.20698500332213,35.553747531708545,301.0,272.0,3.0,13.929511542905235,13.909130816834478,12.27906295245264,0.2903938487809405,0.4711266244626072,1.5690652432845407,4.0,1,1,1-1
301.0,137.40109465476303,292.1671789823108,57.35902327221545,301.0,301.0,8.0,14.080517391487884,14.662173610581592,14.897661381930904,0.28784871626582925,0.38536113090292057,1.063282979848343,4.0,1,1,1-1
301.0,82.97118218888143,486.82190095770505,103.73417311486617,301.0,125.0,36.0,9.451216056920071,13.110770223439884,9.451216056920071,0.43087891691077385,0.5787206068419747,1.456892743777443,4.0,1,1,1-1
301.0,123.14256541745274,432.22089583919654,93.0589061480755,301.0,301.0,27.0,14.253042211072444,13.948311717023113,12.829592943654482,0.2669547795690155,0.23184402801551235,1.1622460459794046,4.0,1,1,1-1
301.0,180.533914974139,503.7924631633483,43.358172009216624,301.0,301.0,3.0,8.185642286017961,8.643217923356652,8.986273733320834,0.27838859789023607,0.306164186458141,1.1660805482376089,4.0,1,1,1-1
301.0,87.75477136553182,175.13747330054048,44.65493216995318,301.0,88.0,9.0,9.581060488875972,6.605336720740391,7.85628279562677,0.352535603762619,0.7271024737849838,1.3921443754593126,4.0,1,1,1-1
301.0,104.61175953087306,226.13747693501685,62.73659252416684,301.0,200.0,20.0,6.765725423336142,6.700295277043812,7.194850607913224,0.38711531110868797,0.37380160544410024,1.3614943598816034,4.0,1,1,1-1
301.0,163.9218453073353,207.43661312204648,37.74997917583584,301.0,126.0,3.0,7.7542258998020674,8.413319180186045,9.237611893294687,0.2989328520317036,0.5080341207063697,1.6339999403587953,4.0,1,1,1-1
301.0,148.1579804637634,705.5787728302164,78.9751740521881,195.0,69.0,24.0,16.379603380572753,16.60526941764783,16.379603380572753,0.39631577360334613,0.7294936167273481,1.1245071416380525,4.0,1,1,1-1
301.0,78.76174774062189,320.5467371973764,47.19472430987513,169.0,76.0,4.0,4.421971142857155,4.616447460949493,4.1050996417925365,0.4102035464119142,0.7710062044953856,1.2744244202752109,4.0,1,1,1-1
301.0,101.05050386820244,203.6926183182735,61.33630886774922,154.0,95.0,18.0,13.89085412975521,14.414329574092505,17.0419262493576,0.46939928843444095,0.875402196118712,0.7635840159688038,4.0,1,1,1-1
301.0,85.34836625988733,309.20189330645985,58.0049872413983,193.0,84.0,8.0,9.188608923350273,10.172359682671676,8.788676948973032,0.4569501085188644,0.7039522191884655,1.345259285363554,4.0,1,1,1-1
301.0,63.54483096561106,170.08768689147288,52.90646793306394,221.0,37.0,10.0,17.867687532451683,17.513325751994838,18.02084469441249,0.5619057184074485,0.794262872263706,1.4201593914686421,4.0,1,1,1-1
229.0,134.09463887516245,311.94755363072716,47.054508011176694,211.0,161.0,5.0,4.893932077299767,6.16541145875051,6.98922603491901,0.45008200025684775,0.634808693146655,1.2218945008933435,1.0,1,1,1-1
193.0,51.575724369410125,234.95458529616565,70.26071456366732,124.0,45.0,6.0,39.32042111925834,35.308963118293775,35.432349703575504,0.760048414555438,0.9791308350702973,1.3083644869278628,1.0,1,1,1-1
185.0,55.862229118345944,412.82822263072995,101.45082672935585,125.0,72.0,20.0,19.40450536914328,18.82140666962609,21.72979651932952,0.6860274129119361,0.836652153201539,1.0433136870181166,1.0,1,1,1-1
184.0,78.78975409366991,137.41475945780627,30.592537747861652,184.0,53.0,3.0,6.830281904465477,5.635348972547264,5.355437509415125,0.4952514473293885,0.9697014913865095,1.3571134645647671,1.0,1,1,1-1
171.0,56.461525698280035,281.8663631934617,49.802136755942215,84.0,44.0,3.0,21.37760699904771,19.997206367150923,17.969871642783584,0.6333146755211301,0.8180920706806194,1.738214546590979,1.0,1,1,1-1
150.0,64.36899277209834,255.01686305166191,84.9353269761812,132.0,92.0,10.0,11.299881546704142,11.603333642769005,10.560539291503392,0.6600110261970589,0.872498099026917,1.4519678825111901,1.0,1,1,1-1
132.0,48.262581159684075,219.13590761500598,50.33383741792155,37.0,55.0,3.0,11.644373338587247,11.076356752146776,10.680774726641193,0.603639330793728,0.8463082972607976,1.3944964479286523,1.0,1,1,1-1
130.0,56.031104127992606,461.96570833935994,37.029540050935836,67.0,77.0,3.0,0.7672394259956612,2.267474353437988,5.309516214814063,0.6053868161785418,0.5795909317004673,1.7548026621904458,1.0,1,1,1-1
122.0,55.109634974346285,273.4931248894008,48.53565105986226,32.0,14.0,3.0,26.356449680333515,25.073617324965742,27.64546656968559,0.706479577681064,1.0025010677310575,1.6279543296668317,1.0,1,1,1-1
109.0,66.73712785292967,354.3402626588989,42.729492156597395,101.0,36.0,3.0,4.512509966911946,3.8258135499803516,4.744770568609161,0.5839514425191937,0.8150329494420209,1.1262065256041247,1.0,1,1,1-1
100.0,42.13163261610131,67.79313640120073,67.45259504268628,88.0,6.0,32.0,7.515781722394402,8.289991652862447,8.89612621545036,0.8792234743075912,1.4810355143365872,1.0282863001837301,1.0,1,1,1-1
83.0,40.08240906534961,577.350427981473,46.04484765781335,53.0,29.0,3.0,6.3926718138300656,7.604899666411676,8.819893093219504,1.0878395353421295,0.9522797733596933,1.9047773706029463,1.0,1,1,1-1
64.0,44.38522123610662,112.75968342443734,40.99082366579396,40.0,42.0,4.0,5.190341473803988,2.74381797898177,5.053758840529778,1.229045627098563,0.8644753334015505,1.5499518418975842,1.0,1,1,1-1
60.0,31.927705145523333,110.71201204338124,47.89443952737289,7.0,17.0,7.0,5.69860586512105,5.481157560382062,4.279397663471903,0.8675510156867209,1.2439543720419397,1.6037867894136155,1.0,1,1,1-1
51.0,40.53208536956276,90.77191080979867,34.98758659504894,19.0,17.0,3.0,1.5934789426065437,6.2972634889895165,3.1052994421843527,0.8185907449565308,1.0623258294537006,1.3721760026490493,1.0,1,1,1-1
48.0,43.206791252913085,166.3063669948268,85.1580550069478,5.0,15.0,10.0,13.596830879997558,12.880809951372704,13.646553243909539,0.9713651471016677,0.8209029381734979,1.0564173911368266,1.0,1,1,1-1
41.0,38.58136980372661,145.40913362984884,49.66391358354318,9.0,31.0,3.0,1.3441935007494403,4.31527794894676,4.602881445585727,0.8219294012899286,0.3345740967738547,1.3245027745706193,1.0,1,1,1-1
40.0,40.69724054342723,656.461960302356,36.18624015151596,15.0,40.0,4.0,5.7272015293310155,3.4052082729584043,3.994306272351552,0.6910679840937556,0.35952732118937397,1.1114872698886944,1.0,1,1,1-1
35.0,30.45466892738366,431.70942766365334,49.33784319233953,6.0,17.0,3.0,6.037734638909798,10.114546955181574,1.9404579218533273,0.9307094065090497,0.7816416082041162,1.7088611109922132,1.0,1,1,1-1
33.0,32.03654187698899,460.507822087497,50.611340516844976,19.0,33.0,6.0,5.800594484649478,3.92423492087383,5.90266236323497,0.8333682392518514,0.21300256805797468,1.4137765184574753,1.0,1,1,1-1
30.0,23.18696929608712,230.31858491218057,44.167109378155295,3.0,30.0,3.0,1.2984841672217937,2.1242022441291963,3.0355099542799366,1.082374412946821,0.2383785606058897,1.5918093651628489,1.0,1,1,1-1
27.0,51.573291004546846,221.42662633839646,117.01988387506721,17.0,13.0,15.0,4.704101438907123,3.5363894450503746,4.8191172785510545,0.8255042330317985,0.6862781934248451,1.2091908441679655,1.0,1,1,1-1
22.0,39.93321014876082,90.14584926678174,45.008890834973,8.0,8.0,3.0,2.083296470042488,3.1682476572565212,1.2160089903526055,1.0569878465590634,1.1060461023973005,1.3257944745027668,1.0,1,1,1-1
21.0,36.82695392272781,86.09234689826165,31.21173478873794,11.0,21.0,3.0,1.508981410605766,1.7390104424582522,1.677743891044047,0.7446913251981016,0.4934542399059926,1.2882610089479276,1.0,1,1,1-1
301.0,145.00371035536224,570.6338730605627,48.72001581882772,301.0,182.0,9.0,3.3361423677774424,2.895037976117182,1.5985988297430036,0.3868394315428255,0.5222057915569076,1.4554857422607057,4.0,1,1,1-2
301.0,138.77146612937403,354.5134473610877,42.85482636073372,301.0,267.0,3.0,5.540500280062687,5.777745106545297,3.6483026244822176,0.41402323873007324,0.6165886531958998,1.3371826865026921,4.0,1,1,1-2
301.0,108.66500738498404,436.2942966916374,51.72996238718417,301.0,235.0,3.0,8.087206143625258,8.50728091811225,8.087206143625258,0.3814818737119291,0.5546127931269871,1.5731245891202361,4.0,1,1,1-2
301.0,103.75111997767853,810.445522805285,87.52239273980071,301.0,138.0,6.0,6.154205879248782,5.917824822187201,6.981104074033722,0.3680272290826084,0.4883833968313694,1.3994441066777037,4.0,1,1,1-2
301.0,140.0693075391515,144.43984450863877,123.00191160875686,301.0,152.0,65.0,7.142532971727794,6.959528680347185,7.142532971727794,0.3058887223363549,0.5650053050281508,1.2355444113937857,4.0,1,1,1-2
301.0,94.5751814146105,460.14041965366016,100.07849794824922,301.0,112.0,27.0,0.9523159090847405,0.9523159090847405,1.8893586832795526,0.3577024643367897,0.6015846755879003,0.9194212367861102,4.0,1,1,1-2
301.0,187.72270928304317,2431.7104166962918,51.297249147979834,301.0,164.0,3.0,1.5047642508094383,1.615053280837002,1.5047642508094383,0.28829581549875266,0.5701206612139578,1.4059042747957904,4.0,1,1,1-2
301.0,220.40629395723371,455.5057004865548,58.48280423970192,216.0,143.0,8.0,1.859464589643157,1.3567046659722053,1.859464589643157,0.31184873916076017,0.4683954346340779,1.4517759284534182,4.0,1,1,1-2
301.0,110.2711899533611,174.90062050502377,58.42818164419091,261.0,132.0,4.0,1.8441504648938105,1.1301335576000473,2.5226588677406725,0.3619482012107959,0.7769034382940684,1.7423844890811055,4.0,1,1,1-2
301.0,91.39922196862143,190.75378982299443,73.67760565737834,265.0,59.0,4.0,4.533664849124009,5.475885961165607,6.502509346937552,0.4811190494468394,0.8861403202022404,1.3552178907749215,4.0,1,1,1-2
227.0,101.07500613338918,560.7319398581743,90.79652184631152,187.0,43.0,15.0,2.8890241218271893,6.19176570279207,4.36263866686796,0.5175479503469584,0.7942833209845108,1.1778709065503756,1.0,1,1,1-2
212.0,94.18116677936189,421.1010361501377,56.814943052126075,206.0,102.0,3.0,3.3850695270867064,4.77224730083893,2.61988950351658,0.6447620493138486,0.8608047493025516,1.7814179529245522,1.0,1,1,1-2
199.0,70.781875880889,624.6934132711241,42.126286584638876,156.0,61.0,4.0,4.891377346650284,6.43301901649649,6.392581582748998,0.579407337441167,0.9817733267017945,1.2051036936017325,1.0,1,1,1-2
182.0,64.77820131762203,320.42965156005073,61.29701847270687,125.0,94.0,5.0,10.829066406092123,8.410449800193755,8.643409088285742,0.7614327194000506,0.9807614010915467,1.144814708683479,1.0,1,1,1-2
170.0,71.1886293373473,231.1463167200918,51.031492975627096,152.0,51.0,4.0,3.8185883616293075,2.619904160743446,9.938269546786245,0.5771765530772102,0.7099504072730307,1.50220187772971,1.0,1,1,1-2
166.0,53.993309787856575,405.5475324429266,98.43919286981013,79.0,55.0,4.0,28.335291989469667,29.702390279490814,26.48337562119586,0.709798462379732,1.0883634592908773,1.470009676464635,1.0,1,1,1-2
134.0,60.9090489949042,156.61686870850167,35.5046240261018,107.0,24.0,3.0,2.3156581250714003,1.9774320251098587,2.5493168392296988,0.7094177397743477,1.2063150573135741,1.4356687536917634,1.0,1,1,1-2
126.0,49.17897952331723,206.37842388045058,38.06965736101288,47.0,40.0,3.0,4.392283124616594,4.6203064652299695,7.180844091030571,0.6541818123782988,0.5966551367345087,1.490379429317346,1.0,1,1,1-2
113.0,56.62615264103356,137.624284681563,32.34689641476217,113.0,5.0,5.0,6.513886405204673,5.319913614094957,7.116390389780158,0.6798798891788683,0.9883523036059667,1.5443251581806339,1.0,1,1,1-2
112.0,54.862367135534384,119.35733375535271,50.36691802552605,53.0,30.0,4.0,11.784021766913638,9.65707530375357,12.525442303317307,0.7060272161255685,1.0297176314729384,1.8838326384974233,1.0,1,1,1-2
112.0,42.10581065068158,263.5520778026684,59.18528675743601,61.0,71.0,3.0,6.604668240671343,7.481709989538673,4.4916487110042205,0.8353428407555117,0.7185026948180494,1.3748966295831486,1.0,1,1,1-2
105.0,39.41147811595486,61.45591996389742,40.1275485984668,50.0,15.0,3.0,2.137090666677583,2.7098253644151034,2.663703959129275,0.9948337542365521,1.1013521484726982,1.7420469871455968,1.0,1,1,1-2
76.0,35.188145176324426,511.9481954433866,40.306634099030994,12.0,19.0,3.0,4.812926780637624,7.169634686604048,8.371940602523225,1.0234054331460327,0.9115651942436034,1.4031281056731122,1.0,1,1,1-2
70.0,29.70624689545184,282.26895590912363,50.45734658266412,29.0,3.0,3.0,9.867246019447649,9.46506446519173,9.46506446519173,0.9610858498751109,0.995312538538175,1.2553809807593046,1.0,1,1,1-2
56.0,45.08051599976002,37.30294240845827,51.4381047150992,26.0,3.0,7.0,9.253077880973212,13.704750571246972,12.754632425968701,0.9997683301353596,1.4879327953578738,1.2747927466503064,1.0,1,1,1-2
49.0,51.62990528510553,35.59201826406338,34.37659669798026,39.0,3.0,3.0,2.2966084936385367,2.736083407569249,5.356395563335051,1.198289768599459,1.5193054303439535,1.7178168784349728,1.0,1,1,1-2
45.0,43.4264898598856,228.86994317420078,49.17636021262903,14.0,7.0,3.0,6.198382107276949,6.672417297761214,2.5420895139244712,0.6312911416186272,1.0882199432542068,1.1424417286745219,1.0,1,1,1-2
35.0,24.490041996167502,256.7132583942768,51.9824887423398,4.0,35.0,4.0,6.018010196773037,4.6008227490261175,2.817382389127348,0.9677329117052903,0.280079419291865,1.3720105828848783,1.0,1,1,1-2
34.0,39.1456015356131,415.1765139556705,73.22074263211643,16.0,4.0,5.0,8.322978270879467,6.520547561912558,5.58610777539656,1.2501767563551147,1.6600243666403258,1.4242377795477417,1.0,1,1,1-2
301.0,300.58831687960446,880.7052876977291,40.41778413478616,301.0,242.0,3.0,3.9701589534996664,3.7382874772698083,4.2428604770159595,0.29688874244525393,0.45273237730866145,1.8919586423312231,4.0,1,1,1-3
301.0,114.080365929268,800.4251479353263,44.06759240993131,301.0,103.0,3.0,11.818628293658147,11.625738111661448,9.608894867189242,0.42978775772036915,0.7311538207509489,1.5127346862541404,4.0,1,1,1-3
301.0,136.10908860460378,138.79665747659996,45.38119031745315,301.0,118.0,4.0,4.457500568286453,5.772295188083938,3.621376325199096,0.33597853773480135,0.7916473140908337,1.335522521953659,4.0,1,1,1-3
301.0,118.96825091827789,490.30286801496106,91.58855501731416,278.0,61.0,10.0,12.41176925057242,12.790158936621777,12.41176925057242,0.47049971056099393,0.9036713253997624,1.3653541608829687,4.0,1,1,1-3
301.0,81.67117393974861,253.85361376294347,70.21701393595163,301.0,5.0,3.0,2.5054810233400957,2.5054810233400957,2.5054810233400957,0.3794174286955932,0.7179383721998482,1.2391119236188695,4.0,1,1,1-3
301.0,96.44270483285113,228.15547571806854,52.07892662740024,279.0,74.0,5.0,10.683530587050416,9.116566619829593,10.683530587050416,0.40124569207791044,1.0691870864216153,1.4452864584932854,4.0,1,1,1-3
301.0,83.08271888879838,216.35852057743676,41.78452251963839,270.0,142.0,5.0,5.553885316582255,3.8033313500794574,4.865201752545559,0.45125979866014004,0.8749560157808306,1.4006582047553735,4.0,1,1,1-3
272.0,116.70889559964455,600.0427946615614,75.11539703203383,245.0,69.0,11.0,17.929522115098905,15.512372783592498,16.98609048704521,0.48441768625195003,0.9170976308475877,1.3433123579736714,1.0,1,1,1-3
192.0,68.4595255603499,609.2042414562881,61.44897087139429,186.0,20.0,4.0,9.263221976414764,10.742269699401774,10.156402717141205,0.6939846370248132,0.9384729116453693,1.5410870208280845,1.0,1,1,1-3
176.0,41.744460823542035,137.87089946084868,59.661934540761315,90.0,26.0,6.0,5.105343616452822,7.124447669582689,4.956656700433355,0.7120512666239809,1.266693799774252,1.5144816117655224,1.0,1,1,1-3
171.0,61.49598866207422,329.64201253052,47.80922272459628,129.0,56.0,3.0,6.86589308800283,4.924243305245358,5.893829892232302,0.599032695949011,1.123833193408133,1.3951358582668323,1.0,1,1,1-3
161.0,57.036623953811734,175.93429632565096,77.32320762443518,78.0,49.0,7.0,6.525233827493417,7.033969258598441,9.204591044317926,0.6339893783074139,0.7667425610591267,1.3662059994333309,1.0,1,1,1-3
159.0,64.38390364125819,182.95676251002644,40.47238723765885,123.0,33.0,5.0,8.52004246744811,6.075642900680621,6.852997659050233,0.573394241090738,0.9845107362055041,1.594866045416266,1.0,1,1,1-3
133.0,68.26148356180518,189.5998870325596,30.722416500305748,94.0,30.0,3.0,0.8718562631684004,2.179681262121308,3.0392405854260334,0.796195927781404,1.1181368741054998,1.611114527745941,1.0,1,1,1-3
130.0,42.277565323456166,251.974625195324,37.24940333253572,64.0,61.0,3.0,15.365079029151463,14.295543159236816,18.5125489718374,0.9023634167119873,0.7721539034667649,1.4760978528165998,1.0,1,1,1-3
115.0,38.67291709043741,296.4457231567696,32.794301447633984,27.0,41.0,3.0,5.771121830032037,6.062819870578912,3.274552071226331,0.865149993900057,0.7189054775777669,1.6565916782114047,1.0,1,1,1-3
111.0,62.9880654286605,164.30318089056735,53.19404332319509,98.0,81.0,4.0,2.0245843728176527,4.286035005781452,2.3506970963073237,0.716114091902908,0.7358747197302605,1.618402314572414,1.0,1,1,1-3
107.0,40.10824809972264,148.78695861445505,43.45072292452536,24.0,21.0,4.0,1.1939595899268542,1.9973223628946704,5.829220134809842,0.9710973343097475,1.1021452931023923,1.1878456337872056,1.0,1,1,1-3
104.0,34.73844380465713,120.52128977454915,39.80858540233361,27.0,71.0,5.0,9.17301361116643,10.542051028386755,7.336584447598447,0.936809762982719,0.624835460032245,1.7293133073779872,1.0,1,1,1-3
81.0,46.98411077911953,289.18359086336113,44.05044830976856,33.0,57.0,4.0,11.911639899031337,11.733145952156837,10.143034746751566,1.0406138837685552,0.6496789070108429,1.3320664367546318,1.0,1,1,1-3
59.0,56.92785401809874,222.94591677128673,67.01701091904924,49.0,52.0,5.0,4.541648695894036,6.003960920857421,4.468968188294635,0.9411320756706105,0.8600498612198341,1.8567920328838556,1.0,1,1,1-3
31.0,33.23065733020348,125.71684909308533,37.594441509526526,29.0,31.0,6.0,5.4273102443605,6.1071600370075485,7.659446828370149,0.7733618605828918,0.5291355569981924,1.6612975454709455,1.0,1,1,1-3
27.0,34.09104610435391,930.9103248272273,63.604153683876824,15.0,19.0,11.0,1.2688344609127855,0.7651354028047874,0.8968552365864958,0.8983646875863016,0.6724134646274328,1.1660472168219957,1.0,1,1,1-3
301.0,79.12654031175936,168.18405206532725,40.880059747749186,301.0,133.0,4.0,4.940666759011431,5.342489040415954,4.940666759011431,0.39736100101459604,0.736231544116123,1.0374457084069018,4.0,1,1,1-4
301.0,101.25589136824904,361.33603860230403,55.08569845184189,301.0,25.0,3.0,8.742381989223412,8.96321367171746,10.643338853455594,0.4001288844659923,0.9101889397384614,1.3516548674607927,4.0,1,1,1-4
301.0,60.36852817035326,303.4464617909454,56.458595513229646,301.0,120.0,7.0,6.368297101824085,5.941666103282718,7.525068400309579,0.4348569690128181,0.7954841462659795,1.4773591821500431,4.0,1,1,1-4
301.0,51.64703956030987,514.4182930178883,32.348267422284714,268.0,301.0,3.0,6.465764672016257,5.796342857929102,4.198354357363683,0.5130833176616422,0.318906314014208,1.3225506896866241,4.0,1,1,1-4
301.0,96.1517046852251,410.59122280378966,44.506501085321666,218.0,301.0,10.0,18.065698539686988,18.703853591007377,15.495431097013624,0.5502743423350873,0.3547452038024631,1.7137812809946171,4.0,1,1,1-4
301.0,57.08514116023427,155.7758289948668,76.07015561507016,148.0,108.0,21.0,3.7337738660722346,2.8924777423200516,4.662115974133617,0.6633799771741041,0.8101695667096457,1.5991409575201407,4.0,1,1,1-4
301.0,74.78500257110798,505.6186939792053,42.33184992313189,243.0,72.0,3.0,6.749775007165053,8.170676224379816,5.406107044120205,0.5022034672840126,1.0481142195241204,1.6129376774562387,4.0,1,1,1-4
249.0,41.39157721432282,199.6275514937542,42.824563992495165,130.0,35.0,4.0,3.2083603453449965,4.229923229712113,5.129938867605777,0.7381756459296439,0.7484576618834851,1.3672775548662366,1.0,1,1,1-4
213.0,46.46536318282056,234.0961255595858,43.432877949423805,146.0,22.0,3.0,4.4446359750835995,6.8662986912123465,3.483904074451407,0.7643305436254674,0.8545328419796532,1.0744102051149442,1.0,1,1,1-4
179.0,78.92896321771869,328.7388630950341,47.850277093020104,177.0,58.0,7.0,7.251894918532087,10.304538274355687,7.475841433903949,0.4826134214729273,0.6577957366506781,1.1623902697880406,1.0,1,1,1-4
156.0,46.90483076501219,116.82729580806196,55.25758479086602,118.0,32.0,4.0,6.137710140307606,8.566158258872683,11.725808997571345,0.673239359490085,1.2927593982360088,1.497005835251582,1.0,1,1,1-4
145.0,50.77453826674277,152.23419823596942,33.37288027088227,50.0,79.0,3.0,12.647052037326912,13.997646641482433,11.408486643927878,0.7667216033950252,0.7435125703460892,1.6855708159256104,1.0,1,1,1-4
141.0,46.05406890114266,370.4630983052888,47.25698133255359,54.0,83.0,3.0,2.465287636863521,2.2642388139716054,1.2119433191076896,0.7211041355967274,0.6112626819733856,1.5240623157006534,1.0,1,1,1-4
123.0,67.05405581288456,454.95492835250576,48.5307732769182,115.0,47.0,4.0,3.649434502797332,7.159955002576577,6.023083503993011,0.6517596063407953,0.6408695161247066,1.4028744027373687,1.0,1,1,1-4
104.0,38.17342841466559,179.23520533018433,31.50099287322929,100.0,104.0,3.0,5.054234883751157,2.487256476365728,1.0141324521878383,0.5724277139647667,0.3318233727924655,1.5737306943925622,1.0,1,1,1-4
87.0,51.88213326057423,372.47667350634623,80.85360494341832,58.0,47.0,15.0,2.729634855439732,1.708620638297308,1.839016618918648,0.7673346317214479,0.509259306451633,1.2910116898631798,1.0,1,1,1-4
74.0,41.34856672248669,342.4908796876968,38.413072447232466,50.0,6.0,4.0,1.756018150948768,3.3216041199216924,2.8304538378857536,0.7252069804246268,1.1408045732794747,1.000061545614362,1.0,1,1,1-4
66.0,35.18092962184247,637.7687397423022,72.72356856442391,45.0,64.0,13.0,5.943599188651677,5.592414537629375,4.226505703693424,0.73452236971931,0.33052618321155336,1.235225631759591,1.0,1,1,1-4
65.0,56.333363989443065,505.8973613743096,67.92081642644054,15.0,33.0,9.0,6.3576681321208754,4.679501037150781,4.679501037150781,0.9659397077239144,0.8786648152029333,1.8770225497046271,1.0,1,1,1-4
64.0,59.04346135052949,248.10379819429417,50.36641706704259,64.0,64.0,3.0,3.329520673383873,2.3492369586791244,3.453530859348732,0.8926223915533088,0.6970857352208858,1.3949747564792916,1.0,1,1,1-4
56.0,40.982265743877505,205.00676692247512,59.36229048142045,17.0,10.0,6.0,13.23450270093844,11.948038380461465,12.20124426087079,0.8814569053518896,1.4938281229922934,1.7287562412040989,1.0,1,1,1-4
55.0,49.03043226375247,78.17012304902286,36.430669539296844,11.0,3.0,4.0,1.9101407703286022,4.096289686041298,3.2037979726479406,1.115415846124602,1.1668541492837892,1.176360933605002,1.0,1,1,1-4
49.0,30.923051357205463,991.6485886548202,78.97349947644557,5.0,49.0,12.0,2.2780733059033884,1.3579294889559177,1.6073202307359997,0.9262151086995934,0.14356558728294663,1.6975243642560212,1.0,1,1,1-4
48.0,35.18184789283855,194.00334421463944,45.696228915422076,31.0,48.0,6.0,1.0009108623082332,2.378956501602458,3.2311904364970534,0.9627482272183326,0.4310568826315013,1.2616778890701974,1.0,1,1,1-4
47.0,53.97551871733511,171.24619885612756,46.35751079501797,44.0,42.0,13.0,8.76755189797775,8.593630033601341,10.671147434330138,0.7907616916677007,0.7671504334123556,1.1243552594802466,1.0,1,1,1-4
26.0,25.843137288806062,67.22187260041977,39.32091258018375,6.0,8.0,4.0,2.2033817515830973,1.1419905630248057,5.743165426806252,0.8193166897946804,1.3434613002713618,1.5379014430949987,1.0,1,1,1-4
301.0,158.1007048569181,829.347677521584,146.49193425797222,301.0,301.0,67.0,8.331568904600989,8.47126574310572,6.891648680704567,0.230997162074582,0.2683402642456735,0.9745932588241693,4.0,1,1,1-5
301.0,141.54131652243217,335.55018681320337,39.415013830139394,229.0,131.0,3.0,15.151994809122986,14.85802702585995,15.151994809122986,0.27736122073691843,0.3648517899683065,1.4353836711967456,4.0,1,1,1-5
301.0,118.15289773173568,282.04196228365026,31.425836334758714,301.0,55.0,3.0,15.18144796358463,15.774205119866243,13.706482583374068,0.32386850058893835,0.5208337468349433,1.2912998267696614,4.0,1,1,1-5
301.0,199.65977116109755,438.3956321465776,44.69059326270599,301.0,301.0,5.0,19.81612124127731,20.308596499420403,22.00862523886597,0.21226754064859854,0.2956804605263498,1.4205687339394197,4.0,1,1,1-5
301.0,99.73051439985537,583.4036910788687,60.35271561647793,301.0,89.0,10.0,5.308767807850642,5.941820102462117,6.663374327485535,0.46864481611056524,0.9020325882058864,1.6974691158623554,4.0,1,1,1-5
301.0,81.20846319392813,363.44803734781703,57.82749784595657,301.0,60.0,5.0,8.775893196604736,7.722693746168012,8.228236360314055,0.4842544774178747,0.6585253983995439,1.363572285581423,4.0,1,1,1-5
301.0,114.78944032163766,323.0148849467589,46.428759219613525,301.0,110.0,4.0,13.494166718056361,13.494166718056361,15.089591349493952,0.3351294686740239,0.7561522492141137,1.3915272601687279,4.0,1,1,1-5
301.0,162.92483010895737,1557.9239687250188,43.80446468868599,301.0,290.0,3.0,6.979529746972087,6.930940103846512,9.19285078190139,0.24732304996207083,0.24771932063353147,1.353075070024799,4.0,1,1,1-5
301.0,185.99855326480915,648.2645388734989,56.324227533883544,301.0,301.0,15.0,8.610515838531892,6.843843775370379,6.787905692399772,0.26424108705335314,0.341925612829405,1.2184966916363298,4.0,1,1,1-5
301.0,181.1637708399753,405.04721164268,37.992087409342766,301.0,246.0,3.0,8.582092813533833,7.619452745889989,8.687642853323236,0.2171761317531608,0.33733810344254955,1.2455309711795566,4.0,1,1,1-5
301.0,73.13379647733589,304.92893097238954,38.23741990504272,301.0,92.0,3.0,6.938194150126844,5.9542686332631884,6.825517657531785,0.4199767847306049,0.7633201593369592,1.4136171973090348,4.0,1,1,1-5
301.0,73.12618045889316,380.29228104725934,110.02733745865777,301.0,191.0,15.0,8.829966020938148,6.457551273153105,9.166120604986999,0.4761215900022692,0.3907637432105568,1.5866227072560732,4.0,1,1,1-5
301.0,92.4605128331752,541.7267935043715,35.35092166745146,301.0,289.0,5.0,8.705426271745003,10.229779581369845,8.705426271745003,0.36596668518240866,0.2969974319952705,1.5269813246812036,4.0,1,1,1-5
301.0,54.710604003941405,429.11918873934496,34.933207575318086,243.0,118.0,3.0,8.965190105917223,7.340378926440709,9.106131049274008,0.5826978391766136,0.7473529617989806,1.4739353086050089,4.0,1,1,1-5
301.0,94.07230081579894,725.7597875058266,34.15271612724374,190.0,128.0,3.0,5.982375655446993,7.892712677348727,6.768608490565182,0.4022956950937334,0.9974460668958804,1.7538007232552941,4.0,1,1,1-5
301.0,112.398641587055,554.5541523624981,46.40374560585621,153.0,66.0,3.0,12.925031574610479,12.925031574610479,12.854183787057405,0.4092332885293095,0.823990728765297,1.281758306364534,4.0,1,1,1-5
301.0,54.4333118031238,90.20923616125476,43.99941249914869,79.0,9.0,5.0,6.799736542729646,6.474092000215638,8.494422917924592,0.6091157939804145,1.3072366495882306,1.738658260976537,4.0,1,1,1-5
301.0,91.97943197491429,690.4437618429354,68.36667194360443,125.0,48.0,16.0,20.232713000757343,20.62337137406289,18.770131556323044,0.5601771624821011,1.2330343705127254,1.4757856288604758,4.0,1,1,1-5
301.0,99.60327389870982,1076.3395306205553,39.13210435449122,291.0,105.0,5.0,8.306353185890664,5.922441784437744,7.665959221191855,0.39994704771703504,0.7251521942160669,1.0287845050460849,4.0,1,1,1-5
277.0,54.88062150882853,819.2660263563021,80.70083861340659,75.0,39.0,11.0,11.800191423264362,12.234766850059353,12.628213759241083,0.7934407560917422,0.6361785898893686,1.1711809917531302,1.0,1,1,1-5
248.0,113.09104082071161,422.78300575316547,32.40936706018247,227.0,171.0,3.0,27.33941100211594,26.413406695996223,23.644255495950702,0.5648147396052329,0.6104508217541235,1.3789670977263155,1.0,1,1,1-5
214.0,57.087919572614965,1069.4232561626811,51.00495949725955,160.0,166.0,3.0,7.4542265503229395,8.53121625786668,6.7466942582947,0.5518915178575492,0.4984435738472669,1.4340089236001121,1.0,1,1,1-5
198.0,57.241037611914564,742.9853677439309,32.05002896736955,82.0,84.0,3.0,16.758968955710284,15.292859280065082,16.802196176144246,0.6591690069796168,0.6499027521778211,1.4742047796599436,1.0,1,1,1-5
124.0,31.577239357024883,258.6466250237929,51.4176457835757,23.0,113.0,7.0,2.790074114087821,1.795028773825258,2.842071503333326,0.7890868072731101,0.4105264817809951,1.5028102780946966,1.0,1,1,1-5
119.0,114.82508430718906,258.0613134421812,38.97071109676728,100.0,60.0,5.0,4.453689773867364,6.707144399023789,7.639717238614393,0.41214043126839167,0.4958234711182934,1.9699955475080688,1.0,1,1,1-5
112.0,69.64534662932736,228.47761921402298,48.22526139404849,92.0,26.0,4.0,7.705620029682937,5.66721264984801,6.576304480843282,0.5590294502081957,0.8423572119181072,1.4871676467439865,1.0,1,1,1-5
96.0,52.31997615414253,360.3595235874233,51.02752277693078,81.0,56.0,7.0,9.014299946092807,8.075546461716902,9.75559513445543,1.1282851641049927,0.8730129206030313,1.6226329080977897,1.0,1,1,1-5
78.0,39.795121645121775,1240.6760626743571,49.482694043680006,26.0,39.0,5.0,2.0168771533157392,4.211303851857123,4.4179269015414695,0.6697865732680053,0.46408748851208,1.7280972815937805,1.0,1,1,1-5
61.0,33.77535089566361,494.88464975126203,83.42942502836956,24.0,57.0,9.0,7.39696512009272,7.078727783314796,5.6515777210418925,1.0144672467706006,0.33389476699466414,1.2396126887989936,1.0,1,1,1-5
48.0,161.81249103219758,1011.4293442326018,56.56619600593423,42.0,48.0,8.0,1.9624610047467417,2.042654669194973,1.7039684071576537,0.21757632470972385,0.14032225353251465,1.6048986766560382,1.0,1,1,1-5
46.0,44.734043837535424,202.48848098014025,86.16363299426413,23.0,27.0,5.0,9.903564744043717,7.82877228311137,11.755266640121773,1.0579993109668497,0.6288725759072034,1.6567324506344059,1.0,1,1,1-5
37.0,30.20094772939573,489.93258826153647,52.32536322506211,19.0,37.0,5.0,1.0893955733452025,2.8693224088101186,1.3166713857488725,1.0877910528972172,0.18860305523364052,1.9221629040458441,1.0,1,1,1-5
36.0,29.878793206656155,525.8578426605948,57.13530323269236,9.0,28.0,5.0,1.8016905027146028,2.7095707329988485,1.2286536054328494,1.0164304444685592,0.4784304843735686,1.548536394652482,1.0,1,1,1-5
35.0,42.815427211503106,178.6366384666875,41.174526429397474,27.0,23.0,3.0,5.3410118904870165,3.692459834030862,2.9271427219692128,0.9533929527567345,0.7192235926010864,2.2273313947571363,1.0,1,1,1-5
30.0,28.82100393924045,254.98092401878682,74.98838641226486,6.0,20.0,5.0,0.9453063972821502,1.246429479298644,4.5406412184975915,1.1199650521335793,0.636204425017753,1.6147725201205896,1.0,1,1,1-5
301.0,78.37971367808211,407.136118943166,62.84906357400158,301.0,169.0,8.0,9.89083885879525,9.740744424731451,9.908323263751493,0.3627623549881366,0.7461180948206257,1.3170382142067547,4.0,1,2,1-6
301.0,129.50142268868535,1598.2296861891232,36.85825068113187,301.0,196.0,3.0,7.805848585645511,8.69333429753714,7.346435491015792,0.3580164373927574,0.4009116539076531,1.3714613003494085,4.0,1,2,1-6
301.0,124.86904083538779,724.7746000005635,35.22402465978192,301.0,171.0,3.0,14.587269646168826,15.431756762717098,14.587269646168826,0.5087603748382477,0.48180796373485263,1.0480748397931923,4.0,1,2,1-6
301.0,164.3784198309621,298.7478135188763,41.16279597400895,301.0,203.0,4.0,5.870640647453612,5.080419413726043,5.782812135345028,0.29790299813476623,0.477540312637236,1.6289022855620932,4.0,1,2,1-6
301.0,147.86192307647832,146.49373166271096,61.64025515043384,301.0,164.0,13.0,5.065024842003787,3.9425065548090044,4.273496376958902,0.22239133979131054,0.4549905109358461,1.1807163201417659,4.0,1,2,1-6
301.0,121.37660796999644,584.6850722497187,41.12605701294774,301.0,132.0,3.0,9.071578076616941,9.717704270234819,9.071578076616941,0.3665470952577529,0.6710826461245532,1.5947180038782387,4.0,1,2,1-6
301.0,53.37493946822584,317.46316781992306,34.5430609639239,301.0,301.0,4.0,4.655605785886032,4.717921956688915,4.655605785886032,0.5363694271877201,0.34292879152223626,1.799566870118125,4.0,1,2,1-6
301.0,115.87779899234442,449.9360543194208,52.09022614361798,265.0,101.0,5.0,7.405219364411569,7.678696839690976,10.200483679053836,0.33153170515981095,0.5773407370800652,1.6381960929599204,4.0,1,2,1-6
172.0,76.76978763340446,291.3167865111555,42.90074586827696,160.0,58.0,8.0,2.617347531109521,5.207092057895894,2.989526307323935,0.4324767340766871,0.7333194532061827,1.334822795534605,1.0,1,2,1-6
141.0,50.75448189008746,477.3365096617316,45.24095392404482,71.0,78.0,3.0,9.188415456240488,7.16667219265382,10.19311029427334,0.68095836896783,0.7025972915142205,1.562654022652302,1.0,1,2,1-6
68.0,38.87249207817529,1015.9370035342814,62.76890712853211,27.0,43.0,8.0,2.79655430610857,4.621250034987791,6.826245835649253,0.89937592435002,0.33071421093594117,1.0210600573022117,1.0,1,2,1-6
45.0,30.673764143866414,206.43140702533609,57.60566008006385,10.0,45.0,5.0,1.5568065079041082,2.13999259402819,3.394037210118738,0.9882379441044108,0.2297854654855252,1.3705355640492995,1.0,1,2,1-6
40.0,33.85633086890585,73.55320434502649,61.77517130478367,18.0,13.0,25.0,2.3266853462627672,4.0619827267196555,1.4080794813736308,0.7945171774282491,1.0862745008393067,0.8696652375847775,1.0,1,2,1-6
39.0,50.89597059877193,83.60597490877062,64.83812374116879,15.0,39.0,11.0,1.7405768589762318,2.334274432361998,2.3155996910844827,0.7947826010753843,0.5843638727554376,1.4071530053513766,1.0,1,2,1-6
38.0,28.64675469682335,190.14102721982948,48.481135816014074,5.0,21.0,4.0,5.357334954154627,5.052915948965576,2.5446656364160134,1.051394031267047,0.65296122107237,1.733236358914094,1.0,1,2,1-6
35.0,47.529996083261715,293.30046182534437,63.12388404998086,32.0,33.0,24.0,6.734239114355425,5.095841426021387,6.573158313765096,0.9194121888752914,0.633337615689495,1.0696900830205263,1.0,1,2,1-6
34.0,26.993278335551256,150.6027933703264,29.38643578255045,4.0,34.0,3.0,1.9241591497882284,1.4441938551777833,3.181883401217026,0.9656021068499426,0.24944913514145933,1.2934086649841816,1.0,1,2,1-6
30.0,30.554515766318435,341.51156917368047,38.27969603875794,9.0,30.0,3.0,2.0888136077271358,2.374780530168656,0.19842961272406723,1.1745250339323146,0.2814860380560751,1.3725081280945794,1.0,1,2,1-6
29.0,30.759565913323478,70.65166379647752,53.94153881227804,24.0,6.0,11.0,6.7355296146545225,4.038322854168948,5.0769238355079604,1.090811459949437,1.0336812645127202,0.8597643434205033,1.0,1,2,1-6
20.0,30.345516189914385,142.24140131582834,26.71784705566176,17.0,19.0,3.0,6.50327515254052,2.8777428550515607,4.379083247390564,0.8876893240573386,0.6085387280480915,1.5744495776984622,1.0,1,2,1-6
301.0,113.06091605595718,220.64724384899543,34.93740191909739,301.0,301.0,3.0,8.057381422932245,7.708322398482636,9.105469727195013,0.39371516765662146,0.4218008101170172,1.2023468646153752,4.0,1,2,1-7
301.0,139.31930401598112,2124.7786159750617,39.73538063102292,301.0,301.0,4.0,10.482267096791638,10.386774304714754,9.032322972366416,0.3027810708033297,0.21985773514413018,1.3896687559612408,4.0,1,2,1-7
301.0,108.44148375329739,677.7419755230067,57.4313920729039,301.0,69.0,5.0,7.65388437806998,8.730312998420954,7.65388437806998,0.3135863427731029,0.6452466713144321,0.7769962680028306,4.0,1,2,1-7
301.0,141.9123581315259,2020.034595640859,89.54530442957524,301.0,259.0,36.0,9.335107203366116,9.247609521674292,9.080978744417944,0.4317317913629102,0.30665834973468065,1.449575134228445,4.0,1,2,1-7
301.0,121.91269405885674,395.2669277645533,39.49835136786886,301.0,158.0,6.0,3.9990987805065235,3.6873811003864487,3.3387726418382497,0.2994175569449712,0.7507602109631212,1.4159019328362334,4.0,1,2,1-7
301.0,90.04540039152243,849.6993827628175,51.293331074377285,301.0,140.0,6.0,1.5718683242892681,1.1438419494532486,2.0148190145897416,0.3070759287563239,0.6542701410022755,1.620447062281211,4.0,1,2,1-7
301.0,84.90097338430624,174.87162601189894,49.55549436302644,301.0,62.0,4.0,6.177536150493518,6.597216756286947,6.177536150493518,0.41236883049696094,0.6409312474584019,1.5998152118192803,4.0,1,2,1-7
301.0,79.7067548469436,431.02692847709477,116.84740995649902,298.0,201.0,140.0,5.99526931913012,8.39585656909653,6.228819164467718,0.4203323721631334,0.4479895607054142,0.9046329648636008,4.0,1,2,1-7
301.0,128.2873789379662,1069.9137731331998,64.67344382551394,301.0,100.0,12.0,1.69478765475576,1.69478765475576,1.69478765475576,0.5821501518822882,0.7059251762626909,1.5506946606974366,4.0,1,2,1-7
301.0,69.27506220634397,259.39746562760513,40.31359078543875,231.0,225.0,4.0,7.915108243378472,9.553010168246262,6.260147693879881,0.5086415371588132,0.4422727255319477,1.3489758861721,4.0,1,2,1-7
301.0,92.73290584382387,453.55546969437347,60.76020758956288,281.0,95.0,9.0,6.77342905819813,6.77342905819813,8.85680604228551,0.4146886771926032,0.775036908075258,1.5605645579130816,4.0,1,2,1-7
158.0,43.34262960418594,672.2428897946185,33.23444983437477,71.0,86.0,3.0,2.4654611733240928,0.13609156271440248,4.663438765953354,0.6282604414542493,0.5177613982410132,1.2842705852484932,1.0,1,2,1-7
134.0,51.92178914276281,348.675597364514,37.97866424874503,103.0,52.0,7.0,4.10708782105505,8.915947870594058,9.087770766337776,0.6401720459043025,1.0572448148829934,1.5076203748362393,1.0,1,2,1-7
301.0,166.39096721342435,424.2064320038445,63.23571031938545,301.0,280.0,9.0,7.7105973947848,6.732037982712715,9.027081616213172,0.23358601666015044,0.41856440527570454,1.6070423205347344,4.0,1,2,1-8
301.0,181.8282097507162,446.6669724027238,31.087812854395715,301.0,150.0,3.0,14.047145033594218,14.251883603545188,13.574298539913592,0.2634141806073676,0.49724404377488196,1.450693271347007,4.0,1,2,1-8
301.0,153.29540965665754,369.42353707173305,38.89330679186573,301.0,74.0,5.0,6.032811906664502,4.303029444341382,6.161003849355971,0.30124232224044706,0.5192651465389512,1.520627350410824,4.0,1,2,1-8
301.0,116.42945756128597,306.7130823733794,33.46049530499643,301.0,173.0,3.0,10.38269982390198,10.449858423527305,9.303190105239661,0.4063463583828579,0.7511867125955684,1.5505992509684912,4.0,1,2,1-8
301.0,94.4921032556906,412.61061460575456,60.532549923510544,301.0,112.0,10.0,14.046780389882938,14.909331055136068,14.046780389882938,0.3601073782027431,0.6069179686590513,1.0484480146612256,4.0,1,2,1-8
301.0,133.43266588887852,1005.733545445498,39.96081355187018,301.0,203.0,4.0,5.524377298682851,4.653093020840963,3.419784435950008,0.25784850731468006,0.4274706075994329,1.1383970056159864,4.0,1,2,1-8
301.0,168.68624979577257,459.9212037011269,65.62933925101873,301.0,218.0,12.0,2.975913363828244,3.4885935528894536,2.975913363828244,0.3896469995999875,0.5548956047533371,1.439426602517202,4.0,1,2,1-8
301.0,204.9173413172806,283.69715270327055,51.625140223231135,301.0,301.0,4.0,3.8197156450892815,3.1883171580830973,3.8197156450892815,0.2778830182892927,0.4387467949793492,0.785095357388577,4.0,1,2,1-8
301.0,304.8359223382689,1493.702464609731,45.45614094955042,301.0,259.0,4.0,10.356265067226277,10.000647895254835,10.356265067226277,0.21233506556456566,0.37656293564347537,1.442828381677976,4.0,1,2,1-8
301.0,63.18624489573968,293.614658189963,50.50733525503501,301.0,169.0,6.0,12.574246889086488,10.7363553156776,12.574246889086488,0.4405318429550028,0.7777464945220666,1.4431138746411725,4.0,1,2,1-8
301.0,148.79339423985644,281.85510041890694,59.46298910059541,301.0,27.0,3.0,4.992628338245336,5.56205519598578,7.723086859225291,0.26291880989253913,0.7441029549168567,1.6534739178909497,4.0,1,2,1-8
301.0,100.88889110960328,736.5829040330759,40.665990267542284,301.0,152.0,3.0,2.4708656137789795,3.30281768980432,3.9994532888481507,0.4363692581595687,0.3237502188710513,1.2401871981318833,4.0,1,2,1-8
301.0,146.8394631109941,1830.4538611610235,54.718629737635176,301.0,173.0,12.0,14.891201376911916,15.045023645509609,17.228353458099097,0.3556390533729391,0.6495490163895732,1.5762165254303644,4.0,1,2,1-8
301.0,136.20746498150638,336.19340049707955,95.0410939739845,301.0,94.0,40.0,4.816343347650227,4.124322754699363,4.03464477000532,0.33165579121686456,0.6563132739430204,1.2194627660353599,4.0,1,2,1-8
301.0,105.66319310767828,438.6718923205377,39.235381070233124,301.0,147.0,5.0,4.976172062276289,4.62855009806845,5.7779733068227355,0.3902371849185511,0.5789137192649365,1.6574890395848354,4.0,1,2,1-8
301.0,86.93031664939521,330.4434757781133,65.14592388143959,301.0,67.0,3.0,11.53359174675128,11.352347121365531,11.504231545331537,0.4187808624403623,0.8399557314563524,1.6910295703839227,4.0,1,2,1-8
301.0,60.432318697341486,296.8788873283996,54.23221894082717,301.0,84.0,7.0,12.094878338498004,11.37628621590208,12.37320968799127,0.5345189734947328,0.9867767715820445,1.3454423665264201,4.0,1,2,1-8
301.0,132.02032086158874,1043.3047582467998,54.1896966780145,268.0,92.0,9.0,10.400281940484897,9.826728808476624,9.991618900347882,0.425195127524605,0.5603727970509262,1.238987727902096,4.0,1,2,1-8
301.0,85.5519771668791,550.8624459886429,56.15648655127419,229.0,72.0,4.0,11.816761362256546,14.55370019409337,14.33676097444737,0.46229166521712634,0.8927579766748255,1.200584348187712,4.0,1,2,1-8
301.0,132.19925915413236,218.27319892392168,40.95582765778965,219.0,35.0,4.0,9.674815632901714,9.664789296566832,9.899120758868689,0.40095879824477787,0.5656487066723254,1.3955642508769763,4.0,1,2,1-8
251.0,77.51118242878086,438.3766188073735,43.74158482183861,218.0,65.0,3.0,4.909182895278342,7.744814832983444,3.859787970224407,0.509743598330194,0.9998243197595282,1.3619724463506517,1.0,1,2,1-8
223.0,51.59687188834823,351.4389364180052,49.957827865262054,131.0,28.0,3.0,6.886158907187446,9.981529673333766,9.397751478613795,0.7229263935488934,0.8692274046759604,1.1498717347408847,1.0,1,2,1-8
208.0,68.4704904611915,403.55517087447714,106.36849452990383,120.0,82.0,22.0,2.7163264487070897,2.6487592849579125,2.878193892797388,0.5036983362843942,0.6744416950736198,1.228423986768994,1.0,1,2,1-8
199.0,59.84060644368829,973.1434023488429,68.55756237937928,166.0,78.0,9.0,7.49176777499546,8.93476459958211,5.717775599645657,0.5900594571149871,0.9395136961018888,1.3607854996241604,1.0,1,2,1-8
191.0,49.06699279326947,286.1860969210077,45.899988870215154,162.0,73.0,3.0,7.8594642356146585,4.923731231713155,7.350745225795693,0.6399496096876728,0.7422490948166387,1.3606340017447127,1.0,1,2,1-8
187.0,44.667054562196974,280.4112105662998,38.295240593126444,139.0,45.0,3.0,2.5419161547830385,2.8370907282055273,1.420282533934558,0.6538638642877515,1.1053968141782877,1.6070058744759657,1.0,1,2,1-8
155.0,77.85192716245739,999.4769135082013,50.74304529369621,124.0,95.0,10.0,5.822359105738071,7.205091001118171,0.7831433724155592,0.5273375489124484,0.6322218225360509,1.4982235747250543,1.0,1,2,1-8
151.0,59.85062801549505,257.36045674823197,37.03604287076547,131.0,72.0,3.0,3.043074459727819,1.5438449124138465,4.138627187141065,0.6102746713933296,0.8631217693049027,1.6680039191600908,1.0,1,2,1-8
147.0,50.4068050614514,209.9136128094217,65.74634023691812,78.0,48.0,3.0,18.35283758669325,18.86237010151673,16.278012853506155,0.7929233065942268,1.004399419435408,1.37734026842332,1.0,1,2,1-8
108.0,48.85819823440011,401.2217179848298,45.10102162786244,82.0,67.0,3.0,12.440514332463913,12.86143426251672,12.352067567278047,0.7020124431803701,0.7200277293211833,1.3121990543393787,1.0,1,2,1-8
94.0,39.718629897788375,837.9703859360476,61.69266801208727,47.0,52.0,5.0,11.780020883333409,9.75805096350991,10.982779144458215,0.8056611101542216,0.8393633367506482,1.4712222763322143,1.0,1,2,1-8
22.0,26.770868884034435,141.26314009596558,55.65750726664547,3.0,3.0,26.0,0.8703596309674527,1.0627783892256164,0.7574738416656549,0.9877647643267334,1.3745233251750166,1.095681493497973,1.0,1,2,1-8
301.0,113.6311685813007,700.8295017573593,43.8461680320547,301.0,121.0,3.0,8.321390774753485,9.008734111040342,8.321390774753485,0.3442562973689603,0.5818002613375703,1.5308726214401736,4.0,1,2,1-9
301.0,272.5884338586394,644.5325775449446,34.79466499111757,301.0,301.0,3.0,5.924778700300741,6.016989936928347,5.924778700300741,0.3531372407703903,0.3366038887891771,1.5853921054686666,4.0,1,2,1-9
301.0,86.48881916270012,300.0868084514196,45.23723729780008,301.0,131.0,5.0,5.478735400379026,4.988601777718864,5.478735400379026,0.45276954991533575,0.7792000729411144,1.2714250586556257,4.0,1,2,1-9
301.0,228.64073929338107,520.3939403224492,54.989523052032276,301.0,264.0,5.0,0.8941760962224763,2.9046977499403988,3.1711626331504523,0.24631768495642017,0.39564743642236766,0.8620891788351202,4.0,1,2,1-9
301.0,182.11344503830924,471.5929801957028,47.695746729077214,301.0,107.0,4.0,2.2266814375417474,1.9699345057945352,2.2266814375417474,0.30769385416339606,0.842173034418878,1.3720966236281134,4.0,1,2,1-9
301.0,273.32244867235676,1138.9873709609888,56.04116567886959,301.0,128.0,9.0,3.640672354876237,3.944733637640443,3.640672354876237,0.21414570238511316,0.6561122381059307,0.9662524167926474,4.0,1,2,1-9
301.0,185.82675928838324,255.7474544267605,52.856977816845415,301.0,119.0,3.0,4.877602360409197,4.329954317021099,3.687345578501146,0.23438799761011178,0.7854527822572464,1.1760420058209486,4.0,1,2,1-9
301.0,248.0095804305405,314.2214887326496,61.881258574818574,301.0,53.0,8.0,1.0967426383769403,1.910658588364452,3.223553523221079,0.22856389133967786,0.9225242341345287,1.120288920425595,4.0,1,2,1-9
301.0,223.20808513562164,307.3412140530729,34.57895487487101,301.0,162.0,3.0,7.170225514099064,7.341332037305215,6.8952597452505175,0.23984836086099834,0.49505130900078476,1.2544496161436378,4.0,1,2,1-9
301.0,131.20497214834762,219.6033770411724,74.42542602499901,279.0,82.0,4.0,8.48575709779935,9.95586480964318,8.48575709779935,0.31083144098634136,1.244433525791399,1.360479429941976,4.0,1,2,1-9
301.0,112.87162346385487,293.55259747889636,43.70241440223611,301.0,120.0,3.0,8.07848848268177,10.287272193370432,8.07848848268177,0.39685811033270435,1.1355861863804477,1.5052553580726395,4.0,1,2,1-9
301.0,153.87317563496143,718.7544857552616,48.67022933893724,216.0,81.0,6.0,3.1536578853958703,2.0909181198965077,3.016782078763313,0.4378221392976068,0.7138241205381246,1.471118054985383,4.0,1,2,1-9
301.0,51.65484910120121,487.0831668807525,46.091725160184765,223.0,91.0,3.0,3.3220990309033516,4.206731246596058,3.8685063370466137,0.5232457122887507,0.8426440327321665,1.444632188017312,4.0,1,2,1-9
301.0,60.840327499723294,1227.3752491371727,40.612258725229495,249.0,111.0,4.0,11.044329741475682,11.044329741475682,11.044329741475682,0.6762596039998037,0.8782335403763506,1.114031323758205,4.0,1,2,1-9
248.0,71.37977516780516,458.0819110852633,38.503440079653515,174.0,68.0,3.0,2.917489237426525,4.991130223778653,3.890374999719968,0.5898110991433682,1.100853709407053,1.5594603483591745,1.0,1,2,1-9
228.0,53.57616389163232,299.05398739191355,40.367146547900695,170.0,53.0,3.0,9.952181125746453,9.800057428731707,9.953576997951316,0.7390390981724564,0.7526048581827605,1.2067854210685243,1.0,1,2,1-9
200.0,84.37048192610906,688.7507309831259,72.19121721084807,170.0,166.0,8.0,2.3857312364801997,2.217551401256258,3.0853322662247007,0.6407390774914572,0.5991188642435313,1.5215140406729422,1.0,1,2,1-9
170.0,48.17113440810529,235.450428997617,60.28361435181841,95.0,31.0,3.0,11.309097120380411,8.703302346936491,9.344690073759816,0.6999928436691829,0.979208416713258,1.1333495094483323,1.0,1,2,1-9
155.0,44.60319221828297,119.43286426870343,53.680061011526334,37.0,64.0,3.0,7.171607808186218,6.006447621911883,9.179128330072238,0.7740745416013426,0.9573722336617707,1.268236521150503,1.0,1,2,1-9
148.0,80.87331730314884,265.19286429988676,78.7008174294798,128.0,72.0,5.0,0.6260167106073834,4.0290258080713715,0.8206417026424273,0.40079700150077524,0.9274097414582372,1.6366964776355295,1.0,1,2,1-9
