lifetime,max_ch1,max_ch2,max_ch3,ch1_lifetime,ch2_lifetime,ch3_lifetime,ch1_dist,ch2_dist,ch3_dist,md_ch1,md_ch2,md_ch3,track_category,condition,replicate,cell_id
301.0,152.5761743518689,382.84704053223027,16.68282074030985,301.0,87.0,0.0,7.567409532349069,8.030730920149415,4.368747109050223,0.2655687738392041,0.5274004764123104,1.6314990338657764,4.0,0,1,0-1
301.0,185.72300098272842,490.4383537298175,25.642945221708274,301.0,203.0,1.0,17.11225059443715,16.378084176631457,16.519803046142027,0.24549701036342603,0.40050761983105343,1.5432671698217681,4.0,0,1,0-1
301.0,117.59172521266011,156.50242653571357,15.008958447039657,301.0,55.0,0.0,8.063171774530517,9.216371927577544,8.063171774530517,0.35483194782796335,0.660404629166302,1.3425139761150628,4.0,0,1,0-1
301.0,122.73856882917156,159.45102069308655,18.04526051974355,301.0,86.0,0.0,14.45261304732946,14.237553150435009,16.920699340028772,0.3691475715747025,0.9830440169100018,1.3324906438753894,4.0,0,1,0-1
301.0,206.26251998377228,331.149582276377,39.38843728521417,301.0,195.0,2.0,7.43918519666231,5.939612189640729,7.43918519666231,0.2725762372282387,0.5496424026733858,1.3692559847502166,4.0,0,1,0-1
301.0,201.0540716709834,252.17379779432292,20.018731398006135,301.0,207.0,0.0,8.470989905355177,9.117722365550266,6.902008480752484,0.2392796985711286,0.38570792527118053,0.9358878741321519,4.0,0,1,0-1
301.0,313.15665975902317,487.2704392834427,25.1266364514379,301.0,134.0,2.0,7.382199549132535,7.756905648058951,7.451848535086351,0.28661844593897956,0.5274956929533285,1.4610588947384386,4.0,0,1,0-1
301.0,159.1717914312057,230.114884972759,24.306252495415723,301.0,77.0,1.0,20.77549688878444,20.77549688878444,20.77549688878444,0.3660590279885162,0.6054782031574071,1.3694914605948452,4.0,0,1,0-1
301.0,272.1677866792944,474.0093332865796,20.878367593735142,301.0,119.0,0.0,31.531060465402717,31.11442382626966,31.531060465402717,0.31989637478926447,0.5842914649866424,1.3653976909600511,4.0,0,1,0-1
301.0,199.874398672446,394.98854446339055,21.455516647263345,301.0,301.0,0.0,7.1308557897319105,7.79975996625048,7.1308557897319105,0.2253721006922342,0.34476017231478634,1.7841829069778767,4.0,0,1,0-1
301.0,171.07045634880524,160.66791556142408,34.22000888627539,301.0,33.0,2.0,7.418870089557663,5.897089411960638,8.942474381186592,0.2617722505514662,0.6790411193746774,1.783036517694674,4.0,0,1,0-1
301.0,230.6342313088315,610.9707828786253,22.258570783725148,301.0,137.0,0.0,9.720244385330073,10.151091136237346,9.720244385330073,0.2632139504729696,0.5882282509738789,1.3985560665461625,4.0,0,1,0-1
301.0,143.4148411789649,261.25608718868534,16.751111477752488,301.0,92.0,0.0,9.23130272649333,9.23130272649333,9.23130272649333,0.32537334039751026,0.8137739662126757,1.3329848880780697,4.0,0,1,0-1
301.0,344.7843002704373,404.5627311896986,22.269093470217864,301.0,143.0,1.0,7.459707074015113,8.108103290944499,7.459707074015113,0.2730244203423365,0.557340296030974,2.183507615435746,4.0,0,1,0-1
301.0,80.83332078418215,238.49540013584996,19.01295170750666,301.0,218.0,0.0,13.197773687103831,12.94673124430696,13.197773687103831,0.4436287256660526,0.4512930739120294,1.3783787455912213,4.0,0,1,0-1
301.0,140.48002793942518,206.32423221080177,20.082020125225974,301.0,163.0,1.0,10.661739865729242,9.60016707977633,10.030850723240954,0.3188324025017055,0.5940552319365673,1.4395799711111117,4.0,0,1,0-1
301.0,114.47108267300878,196.0127312111854,20.88509311638551,301.0,94.0,0.0,7.411272718231325,6.1345245495804726,7.411272718231325,0.3650352598713772,0.9164505009841336,1.792015518900454,4.0,0,1,0-1
301.0,143.6256177295563,252.4233432486647,22.196707280509095,301.0,272.0,0.0,12.281566431171903,12.593995358910712,12.991714020409841,0.24508060050228542,0.47639035590723305,1.6343638688699689,4.0,0,1,0-1
301.0,212.1255705180109,155.5970955593916,27.84021552418282,301.0,45.0,1.0,6.98251255890146,6.223795378601977,9.39519727114104,0.24009156233568593,0.7117372572086511,1.6780080881210335,4.0,0,1,0-1
301.0,164.4524968359978,304.80896883063275,29.344865093403527,301.0,168.0,1.0,8.039869284644578,7.182651299813665,9.348486400125223,0.2906476934066312,0.5272303655960934,1.46256531074645,4.0,0,1,0-1
301.0,173.41359729543606,374.6112676564437,26.219744570868315,301.0,109.0,1.0,13.866001896853454,14.20101734269479,12.528508178089332,0.24260305546193664,0.7815871000993451,1.6294896785639224,4.0,0,1,0-1
301.0,132.418636918942,398.11874804413833,22.751735936722397,301.0,105.0,0.0,10.83648193438112,11.011414021531277,13.067652438993616,0.3223101018738405,0.5143993052811012,1.604881048564121,4.0,0,1,0-1
301.0,314.3724707377442,293.04217523211855,21.224865612677497,301.0,187.0,0.0,8.729009043696443,9.414524784621173,8.729009043696443,0.1936079799925306,0.503427360717602,1.4993479637771536,4.0,0,1,0-1
301.0,226.72105332414648,319.97852584150814,24.262913480552918,301.0,199.0,0.0,8.363506790683081,8.433596195648244,7.429459532118698,0.2717972954599327,0.3620996263381711,1.3721238558604776,4.0,0,1,0-1
301.0,272.6515938334294,658.7093676966199,24.847919093453356,301.0,131.0,1.0,7.76196128252173,7.2078083943849025,8.661247971939588,0.19136969986051663,0.7259390740910141,1.812850092407136,4.0,0,1,0-1
301.0,217.33159416382352,221.025297590452,25.73164884703947,301.0,74.0,1.0,8.50251777757958,8.064702039244652,8.307910284384691,0.3316151428893652,0.746430329927713,1.6216763866996906,4.0,0,1,0-1
301.0,267.560376754691,611.938449877917,18.530108801039347,301.0,109.0,0.0,11.594526561595247,8.237900857915838,10.505550284679115,0.38730352684721403,0.5755078673197294,1.6841735935797395,4.0,0,1,0-1
301.0,119.17269963434214,138.66407304846237,24.903435984136916,301.0,43.0,1.0,7.425983931118658,7.023985467030236,7.425983931118658,0.39854482962455545,0.8905830813351654,1.1104536182747309,4.0,0,1,0-1
301.0,165.63093501083216,536.4367743842084,22.256834099778562,301.0,79.0,1.0,11.933419870871607,10.319961271590344,11.933419870871607,0.34598008734535857,0.6391018690797158,1.7028059015376356,4.0,0,1,0-1
301.0,134.7300680385225,218.17560589948522,21.665882217386756,301.0,85.0,0.0,11.90061019766814,13.27322128482553,11.278912834513319,0.25808455926566615,0.6512769354596009,1.2035631074447048,4.0,0,1,0-1
301.0,119.50859128948785,403.9940064645979,18.94844000776844,301.0,223.0,0.0,17.482537632240906,17.547092533197173,17.250068994014175,0.5816609142015065,0.8385799868001399,1.5095920746802456,4.0,0,1,0-1
301.0,143.9366899900025,390.7050747296698,21.507780602415338,301.0,93.0,0.0,13.088180958005957,12.888371320535759,13.450062542913633,0.2404566165437813,0.47660031699839145,1.3384836463646994,4.0,0,1,0-1
301.0,176.0727562939772,668.114131731914,27.975691876050796,301.0,300.0,1.0,6.144559626668544,6.014238662847763,6.144559626668544,0.33316642710188243,0.21751336585201467,1.718796859975143,4.0,0,1,0-1
301.0,206.33258633467267,225.68308575335124,21.249247407334124,301.0,157.0,0.0,8.63825884476706,8.782125923073314,8.63825884476706,0.22898674371193095,0.6522902463671657,1.4354482009416605,4.0,0,1,0-1
301.0,156.74935202908054,903.465039084522,30.79069931637833,301.0,301.0,2.0,8.356841338072273,7.584127868846395,8.671331510262016,0.2535863221756834,0.33217991931438784,1.4765535721230971,4.0,0,1,0-1
301.0,182.50995601525455,995.8825692639496,24.28229658540822,301.0,227.0,1.0,7.769057727157152,8.610161237353765,10.364596472054021,0.2343861790520845,0.48340249991322387,1.7179041238359412,4.0,0,1,0-1
301.0,308.8903665067796,583.5994611761062,23.886891858029944,301.0,192.0,1.0,15.762051288415098,16.73687803252075,13.269072596320948,0.32738760556439656,0.5994003885600042,1.6932554003565292,4.0,0,1,0-1
301.0,175.60837993073326,1128.5263624786649,17.488141950340967,301.0,242.0,0.0,6.536154575372946,6.769757091634205,6.968842245466769,0.36352950438944587,0.44351218094617034,1.3372770126698095,4.0,0,1,0-1
301.0,262.6917102992506,380.7485059542498,15.365391919831309,301.0,301.0,0.0,8.249339891973408,8.265905058056337,8.249339891973408,0.27158890466637,0.438203851186681,1.1806181105210636,4.0,0,1,0-1
301.0,179.20439013373118,170.77369453605934,20.918395932158507,301.0,120.0,0.0,11.823955336224028,11.226627533167424,10.517828410278849,0.3125847880045235,0.6493094705224058,1.7435239567572793,4.0,0,1,0-1
301.0,243.30473786862862,277.0633953402152,23.6460829818075,301.0,114.0,0.0,9.130039518136151,9.030468960361022,8.529989315273397,0.22648273839549357,0.5565644195875783,1.4974555991031977,4.0,0,1,0-1
301.0,158.90023967838937,325.97437636107463,20.05824338849678,301.0,268.0,0.0,11.994139542459193,11.633862409083125,13.312500311166923,0.368324444251173,0.5244261466255028,1.335597916948063,4.0,0,1,0-1
301.0,242.20643738151057,397.90005065151564,43.445038557320615,301.0,94.0,2.0,7.258309308642369,7.385081230006251,7.258309308642369,0.2465176976721977,0.7307216699320818,1.161301965173845,4.0,0,1,0-1
301.0,203.76975582383255,561.1129608379825,20.610653535946067,301.0,289.0,1.0,13.098501206522453,13.19080769676679,13.098501206522453,0.5628674720072692,0.5439195578872641,1.5968265583911672,4.0,0,1,0-1
301.0,160.67800231611977,432.7703635372432,31.696526336262256,301.0,147.0,1.0,13.30567471115801,14.094652168624416,13.30567471115801,0.2399890488262787,0.4028553383340139,1.585604613519809,4.0,0,1,0-1
301.0,382.76176264234556,690.449666172378,23.952090202191236,301.0,193.0,1.0,6.861405648664724,7.323774866835177,6.861405648664724,0.3749959879103888,0.4921502191003691,1.3222275367938,4.0,0,1,0-1
301.0,135.84195469375553,150.53397830477408,20.352742240476132,301.0,55.0,0.0,8.759810883376254,8.172418728035048,8.072431616120095,0.28231707624656355,0.832411732838738,1.7540660527530914,4.0,0,1,0-1
301.0,273.7064965228527,582.5650270932612,24.62658311591009,301.0,301.0,0.0,10.578412645895034,11.029616994070018,10.578412645895034,0.34984542113617845,0.3952882704289319,1.4457179147234613,4.0,0,1,0-1
301.0,114.41276996722773,436.6940589303212,15.48638732807654,301.0,300.0,0.0,7.900906071022825,7.920477075562557,7.900906071022825,0.44636126504021584,0.3699207192295533,1.2269170812745016,4.0,0,1,0-1
301.0,217.09642300883863,515.0476887300388,25.68788927641953,301.0,101.0,1.0,15.477658600150765,14.94531976667364,14.99684262917319,0.2873650428275196,0.8567336918183476,1.7412301856321233,4.0,0,1,0-1
301.0,188.33327403743155,207.81899274522186,23.77158924254123,301.0,138.0,0.0,8.79532011214952,8.531902914870924,8.79532011214952,0.27164037201542746,0.7305831156479754,1.478494617762354,4.0,0,1,0-1
301.0,351.4682107939783,527.1986360143484,24.899551095316582,301.0,301.0,1.0,8.083069639083002,8.255658496225156,6.678855382531982,0.24103974324660052,0.29677615427080567,2.027556303840284,4.0,0,1,0-1
301.0,358.63940284096196,402.66968037618454,20.205715991301552,301.0,154.0,0.0,8.38669190733475,7.951393474920412,8.38669190733475,0.21959326617727926,0.30612648854758895,1.7647579164015943,4.0,0,1,0-1
301.0,204.10157428865318,470.5046190584754,32.727012471699496,301.0,131.0,1.0,14.503740140573537,15.531921593368716,12.676053790317699,0.29638712946921664,0.5578443289071654,1.8292117140828013,4.0,0,1,0-1
301.0,141.64685355838634,689.7830389676864,27.231642374800128,301.0,89.0,2.0,11.339171345336634,11.194724799973995,11.339171345336634,0.3233550929889893,0.4841203949121632,1.6663371722681102,4.0,0,1,0-1
301.0,246.19870777600045,955.4789331692183,18.2247419654855,301.0,233.0,0.0,8.70641509062812,10.407568643410915,8.70641509062812,0.2178259673801105,0.5250118468819818,1.4554443411522977,4.0,0,1,0-1
301.0,160.25585426280773,587.0216628467994,23.15517145623471,301.0,179.0,0.0,12.646431433113468,11.106995755774728,14.187272737914075,0.26771721022595113,0.45087916802142675,1.2608624131710533,4.0,0,1,0-1
301.0,292.47418511555014,520.9645592990447,23.751947241468315,301.0,100.0,1.0,9.928822316959165,10.911334457089247,9.928822316959165,0.3190312963911586,0.8863613943495456,1.767909607406298,4.0,0,1,0-1
301.0,156.1505249302445,259.59721285147464,25.87365567012452,301.0,66.0,1.0,13.083229727911624,13.115959762767101,16.359539984494784,0.3448107679973449,0.6929497853837893,1.5004956277760122,4.0,0,1,0-1
301.0,246.7301852849432,192.55976675850863,29.810520934858456,301.0,82.0,1.0,10.53021681887888,11.901759905065063,8.55411401362417,0.21882819531584288,0.7952897879065493,1.8587523282313,4.0,0,1,0-1
301.0,78.50184954902639,218.2888303577994,24.35856805798489,301.0,290.0,1.0,7.276661529125256,9.066724560481525,7.276661529125256,0.46895510616695957,0.439133612768169,1.317273798494649,4.0,0,1,0-1
301.0,282.67510930325994,304.10204834134555,25.68885219188839,301.0,260.0,1.0,7.868189057275427,7.769757775658328,9.69983452934536,0.2321860718686433,0.4714437265787815,1.8959392876684011,4.0,0,1,0-1
301.0,151.01915513019907,292.7196211188516,28.77288231486635,301.0,163.0,1.0,7.33609786279212,8.98752568137691,8.444624168201651,0.4559323748490046,0.7532682300927214,1.2023589731818582,4.0,0,1,0-1
301.0,305.7831795722725,510.1984618726214,27.963545928356897,301.0,277.0,2.0,8.026343152951368,7.317653565934651,7.780481562054685,0.2526938040045125,0.4951371633718994,1.9868903237442967,4.0,0,1,0-1
301.0,415.38712173703743,492.0918612063028,19.588021552618102,301.0,178.0,0.0,7.885785903122013,8.063354406306813,7.185196531814583,0.1841935923845232,0.3797393759026915,1.9416968980727256,4.0,0,1,0-1
301.0,271.1576664717632,219.93531613247154,21.019779201888404,301.0,136.0,0.0,7.857129014147382,7.846201502244215,8.141193987551505,0.1933560036057301,0.5419203524788817,1.447275470776607,4.0,0,1,0-1
301.0,178.15863722380465,434.2511877755673,23.118239177445112,301.0,154.0,1.0,8.89801727528692,8.916081232862076,8.89801727528692,0.2428569767454092,0.4098063082259219,1.8773901733980953,4.0,0,1,0-1
301.0,329.8174548428403,1641.5689226751842,20.68445068231203,301.0,139.0,0.0,10.209171258736024,9.180990130022579,9.9539067605369,0.30295373674470466,0.48287925150227645,1.418252780777606,4.0,0,1,0-1
301.0,208.4769057722172,344.7469330797343,41.34134729331247,301.0,119.0,2.0,8.961537847199327,9.286626994428921,7.319929668359178,0.2732908980960345,0.3971092071016572,1.9203277194282615,4.0,0,1,0-1
301.0,168.01890471776784,277.41658604044585,16.135576642980528,301.0,301.0,0.0,8.690639832861201,9.124947803038317,12.700227292178818,0.34563762206665444,0.4724647580172975,1.3781378371233113,4.0,0,1,0-1
301.0,305.69119262565147,339.49780953219187,21.39352846814519,301.0,272.0,0.0,8.825909830979501,8.148670536005952,8.447761334819964,0.2841901380828378,0.4602281260494183,1.506841350176418,4.0,0,1,0-1
301.0,277.4191271316789,607.3939716486477,21.305430768761067,301.0,301.0,0.0,5.192145588772564,6.25069800333353,5.192145588772564,0.29628675221973966,0.29496297951868927,1.7539554476343582,4.0,0,1,0-1
301.0,132.61819730025638,255.02367743704693,17.86713954564966,301.0,284.0,0.0,8.43299482438253,8.998526380754537,8.43299482438253,0.33211257783635856,0.43891996298593977,1.3127917353071523,4.0,0,1,0-1
301.0,253.0092347075578,547.9601512878359,26.627680891069495,301.0,104.0,1.0,7.739870029793239,7.7241315550128435,10.648157134366203,0.24713145824326044,0.5370139052208552,1.8825278321492753,4.0,0,1,0-1
301.0,148.12393812749704,272.2316325373267,21.996361775308397,301.0,40.0,0.0,8.361383859626024,7.236826235065197,10.371638259868023,0.3084555947429381,0.9654387027698477,1.3845646421166882,4.0,0,1,0-1
301.0,136.63166860995568,238.28563687466846,23.25029880694707,301.0,138.0,0.0,9.480062378670638,9.608351082740358,10.334943122704413,0.3271425842313529,0.7389549494584933,1.72311216175691,4.0,0,1,0-1
301.0,212.73731651485286,302.66120793999306,23.76918114826841,301.0,109.0,0.0,7.795967963143439,8.090477886068056,7.795967963143439,0.26424634024204446,0.716979805412808,1.7987574153714179,4.0,0,1,0-1
301.0,215.5632216884459,349.3942289739366,16.66192683229874,301.0,301.0,0.0,7.294592753311029,6.806116125694058,7.294592753311029,0.27508495855271897,0.33543769710213067,0.9725198978030051,4.0,0,1,0-1
301.0,199.91617955840707,273.00435781834483,20.244552586097978,301.0,301.0,0.0,1.0479356387393866,1.1592413573986384,2.9515948970196155,0.3942218837026698,0.45177353613081134,1.6088723598463706,4.0,0,1,0-1
301.0,90.68468083414224,167.89905224143033,21.36584064423726,301.0,131.0,0.0,2.6560460637964227,0.9653807596717356,2.7857924454694114,0.35791016578331475,0.8094849534495171,1.8210186723481634,4.0,0,1,0-1
301.0,103.91628018175392,993.905503525442,22.260785516116922,301.0,78.0,0.0,10.245689859238578,8.98633888992788,10.245689859238578,0.383931823295298,0.5962820011926724,1.4661542750932302,4.0,0,1,0-1
301.0,124.24273636392063,266.1960272510584,21.27902835504883,301.0,123.0,0.0,8.657865851687218,8.097785230727412,8.657865851687218,0.38341064936732705,0.43342312131640276,1.2843664746065862,4.0,0,1,0-1
301.0,124.69526309877675,192.86676143250128,21.019919362856506,301.0,98.0,0.0,8.50565153873433,8.628320884925751,8.50565153873433,0.374362576392657,0.8810484216281466,1.1388633532565602,4.0,0,1,0-1
301.0,184.60647928098157,386.02791824631095,19.887771480424764,301.0,301.0,0.0,6.520310531412432,6.882286102003888,3.0649070017557185,0.2887299877502111,0.3457902197209141,1.7562818889569956,4.0,0,1,0-1
301.0,116.73430541189413,324.50247534250553,18.751174489108816,301.0,301.0,0.0,7.043089693895966,7.0742727516333765,7.82629559210182,0.46847014334757764,0.3975839733901618,1.2226279478746385,4.0,0,1,0-1
301.0,109.12979739437914,411.507207940698,35.191095116062456,301.0,88.0,1.0,7.391565841705538,7.263159530055871,8.115656352735671,0.445861807106864,0.6421936864632575,1.3790883700676548,4.0,0,1,0-1
301.0,177.7985022685305,395.3067655420968,18.995446874653457,301.0,206.0,0.0,8.664977898552543,7.176290446067723,7.94706997707779,0.2817653295666541,0.3765380923910796,1.3923591128700343,4.0,0,1,0-1
301.0,86.51073131323805,382.13559546710695,17.717622032832647,301.0,59.0,0.0,7.134782341880393,6.909649060322204,6.434754696207762,0.434272687651926,0.8458318132436701,1.6637120531463445,4.0,0,1,0-1
301.0,157.29552583620318,275.4351644356005,21.49682479318829,301.0,301.0,1.0,0.9243328364906415,1.3009669451753103,0.9243328364906415,0.31087281598873595,0.4803124248636279,1.6349268262529926,4.0,0,1,0-1
301.0,132.43305631023,177.05579481816514,21.84719730722637,301.0,93.0,1.0,12.540308990144103,12.50934541363693,15.775030332721057,0.3090756547851171,0.6416240880460669,0.989859647112717,4.0,0,1,0-1
301.0,140.8612033448142,131.74008086171682,20.740020406330736,301.0,51.0,0.0,7.096865682816061,8.467358562264753,9.367433596393308,0.28978606887147235,1.022992994001671,1.3413398112286914,4.0,0,1,0-1
301.0,115.78476626175994,331.7860339734065,20.163123683719178,301.0,121.0,0.0,3.8981356055603205,3.3123602116044712,3.8981356055603205,0.5087529293005556,0.48948170975586813,1.5131217273378845,4.0,0,1,0-1
301.0,171.8550551614623,727.7684468094666,18.80598705833344,301.0,140.0,0.0,12.277701536282839,13.622206065853717,12.277701536282839,0.3858365344864029,0.5780175718560833,1.5001914833355163,4.0,0,1,0-1
301.0,105.57824065460562,524.0130573797571,22.500319483930607,301.0,171.0,1.0,10.836440703405536,10.468214203416679,9.269944852775389,0.4487648220746225,0.6311504905540356,1.4879486415757004,4.0,0,1,0-1
301.0,152.71196328999937,458.633849100228,20.431102806943247,301.0,123.0,1.0,12.162174868578704,12.520383186315849,12.162174868578704,0.3697443254517043,1.039308251688061,1.5759160927111455,4.0,0,1,0-1
301.0,223.88910566520025,420.41017654575495,24.585023715674698,301.0,76.0,1.0,7.633955960545759,8.05497319492528,7.633955960545759,0.3167786025400604,0.818097023824011,1.570217972593894,4.0,0,1,0-1
301.0,164.05537638854724,277.7222322864422,24.595289800038397,301.0,233.0,1.0,7.567367765176984,7.198327130715089,10.434088769735444,0.24801630207428227,0.3832968365239005,1.7974711771828704,4.0,0,1,0-1
301.0,122.14310400075793,311.2017069568028,26.92169601424292,301.0,126.0,1.0,7.517676469574762,7.24587085255567,7.517676469574762,0.35296764112605244,0.4946882034653986,1.262583179251311,4.0,0,1,0-1
301.0,127.59290118369667,364.23138482774254,19.91842992161077,301.0,89.0,0.0,9.003671736047481,7.136384776091019,8.876810344973638,0.4470967418610298,0.9956217974280205,1.4405683098899205,4.0,0,1,0-1
301.0,242.95143073213487,599.3505272599613,26.298718246495373,301.0,130.0,1.0,8.261610707522811,7.813862176028072,10.185251988815011,0.28293442164691435,0.680617431431968,1.3845979713151604,4.0,0,1,0-1
301.0,199.15099002622028,412.64624534172094,23.410676577486985,301.0,57.0,0.0,9.676784935384429,10.126054987490543,13.144410784886782,0.4399913586095154,1.0028347043747494,1.6156016093366807,4.0,0,1,0-1
301.0,185.83469628612545,119.97683922910636,18.00147454822671,301.0,12.0,0.0,8.789929243912312,8.620840040034453,6.551333238570193,0.2596192664425269,1.1291631858425104,1.5326496969365537,4.0,0,1,0-1
301.0,156.1122724967685,223.6826085775563,19.395170604979743,301.0,50.0,0.0,6.7493198903840765,6.709265066835773,7.406731041895712,0.3711403386523997,0.7825174632732239,1.6127173388065843,4.0,0,1,0-1
301.0,220.77301757928575,349.96193431540695,17.81948391465273,301.0,225.0,0.0,5.983557590330826,6.021039511216617,5.983557590330826,0.27345747546233345,0.5329214134046002,1.651631868380475,4.0,0,1,0-1
301.0,88.68864654609436,265.26268838277275,18.736111656405633,301.0,51.0,0.0,27.02734524038732,25.580267792734503,26.08381741223934,0.4334337979744235,0.7826575555918766,1.5257485445755594,4.0,0,1,0-1
301.0,108.34981554068379,469.24476458245033,17.54614526061011,291.0,279.0,0.0,22.047034615928613,22.321520354102336,22.047034615928613,0.5963191198301797,0.7350023440122971,1.6952617515872344,4.0,0,1,0-1
301.0,189.11942429700497,453.72045891139595,25.700724532771797,301.0,183.0,1.0,2.2846623040029628,2.375717909054667,2.2846623040029628,0.45917133361085066,0.6551866061813282,1.7192403729380166,4.0,0,1,0-1
301.0,201.8924487457567,600.4212125741733,18.22321612245728,301.0,138.0,0.0,3.9389537617977117,3.6375866452349954,2.4065992502679685,0.37594367771890147,0.40567186954193335,1.6238714956804479,4.0,0,1,0-1
301.0,88.68841721225104,297.42371874652054,25.397237755729883,263.0,76.0,0.0,32.045067078562504,32.419522251950305,32.045067078562504,0.4233080047490977,0.821081442501514,1.6093836793956782,4.0,0,1,0-1
301.0,285.14336778649437,424.7687626395216,22.133162358858915,255.0,301.0,0.0,9.239097398010568,9.280252833886733,8.05211816376339,0.3422928025285573,0.4823149875996969,1.797304891009938,4.0,0,1,0-1
301.0,136.5893910509465,405.30514417443123,28.989784306918246,248.0,159.0,1.0,11.195170473728739,11.10844489629218,12.001023070050747,0.27081065924847264,0.4611245878286929,1.41788896291472,4.0,0,1,0-1
301.0,199.6274792607457,378.6306172462526,22.268164293059744,217.0,125.0,0.0,4.794564162392968,5.240339186420093,4.794564162392968,0.4545820510529966,0.6322584477114473,1.7525902383799525,4.0,0,1,0-1
301.0,178.34479755976432,308.40983436781283,18.082197143617133,301.0,220.0,0.0,7.957820415277598,7.430009191723594,7.957820415277598,0.37926954900505166,0.4527821791526524,1.035600998423126,4.0,0,1,0-1
301.0,195.3053674367343,315.5241007771133,26.442353436364055,189.0,131.0,1.0,6.798771410494525,8.156850461940513,6.798771410494525,0.38089588501226984,0.9953870147136221,1.6950558125304918,4.0,0,1,0-1
301.0,60.3162049578581,313.90701502139325,17.644803097873503,301.0,69.0,0.0,16.91118082528494,16.03115419499156,16.91118082528494,0.5996742357011399,0.9506644309281808,1.6105685709809974,4.0,0,1,0-1
301.0,154.03488254214184,670.9318133110901,19.536795962949387,301.0,69.0,0.0,11.86077006198814,12.834338545865625,13.738021287837396,0.332309945517719,0.6671093150774023,1.1858216479480561,4.0,0,1,0-1
301.0,227.6171809947911,788.9671923921609,25.768009566572825,255.0,72.0,1.0,6.4955167382946275,7.007573080204066,5.2583876528882705,0.4413016080423331,0.6593928806670868,1.7456511194260944,4.0,0,1,0-1
301.0,112.93583887926432,309.17099764356857,21.153876891144986,192.0,57.0,0.0,7.773266019692958,8.24425455811699,9.571326436940705,0.42065391548675707,0.9949415034331618,1.2579361179256303,4.0,0,1,0-1
301.0,209.44833445693465,965.2268191970524,28.55893653994901,301.0,222.0,1.0,19.55358851627296,18.630281129468507,19.031889367913738,0.3834973352264301,0.3782582554788043,1.8286613712795288,4.0,0,1,0-1
301.0,159.992139581796,337.7870739976633,21.98736304919115,204.0,75.0,0.0,7.757001222052248,8.066681496026671,7.9584536972356545,0.366126312268684,0.797955466228294,1.9885764525281882,4.0,0,1,0-1
301.0,185.89621855285,529.5249594068293,21.071263886853696,301.0,34.0,0.0,2.435884912979786,2.435884912979786,2.435884912979786,0.33132033963967134,0.7607388806868806,1.5907978889218737,4.0,0,1,0-1
301.0,331.79567120854256,421.1467459563518,25.41158963982522,301.0,83.0,1.0,11.81572397036844,11.708189850314973,11.81572397036844,0.23260504569679782,0.5366978339874667,1.560557804100745,4.0,0,1,0-1
301.0,251.6677670548156,419.2649573930362,36.38451810839902,250.0,97.0,1.0,18.94759315440887,18.646784529035475,18.972798645916566,0.36583534609897655,0.6683475999641589,1.520170283124171,4.0,0,1,0-1
301.0,61.98331529669374,331.6128776883799,18.87448473244803,161.0,61.0,0.0,8.021909268397799,8.531670218209873,8.021909268397799,0.5193690041824044,1.009834899227488,1.4012910173658049,4.0,0,1,0-1
301.0,120.85599397161799,217.9854438193363,21.920804072655685,241.0,41.0,0.0,8.631772108709908,9.321336982545809,8.631772108709908,0.41927189793796343,0.8234242659475954,1.4706163471785108,4.0,0,1,0-1
301.0,71.83667051146405,157.83540285134362,14.978558624769136,96.0,75.0,0.0,6.349227523081629,7.1380707715713845,6.043134153066941,0.9336796195241436,0.8811455820585518,1.3655692088001403,4.0,0,1,0-1
301.0,97.43623801564955,319.02199460867627,18.049603580200163,218.0,17.0,0.0,12.910013275565207,12.80792309904955,12.594624640631988,0.3926117116517592,0.5906409845709487,1.1504340564588635,4.0,0,1,0-1
301.0,238.20989792967626,407.0079476105598,18.75329709850253,236.0,125.0,0.0,20.976673767955106,22.020375519207036,20.976673767955106,0.27265623232662667,0.44338077922505353,1.1454769370966993,4.0,0,1,0-1
301.0,202.72000495912786,481.8590894306271,22.960323277597812,289.0,252.0,0.0,16.165689874077927,15.800346139305091,16.46542737373005,0.5276941106339805,0.6709660701448356,1.3825746479546186,4.0,0,1,0-1
301.0,128.9799164118153,308.06935833568514,21.232149419357633,248.0,45.0,0.0,4.72752727140257,4.77946112342129,4.72752727140257,0.43327110855320494,0.8653654146687093,1.4369244813500919,4.0,0,1,0-1
301.0,161.6322850746729,236.9619174715152,21.467532470266374,155.0,98.0,0.0,11.39326623830899,13.183901643193062,11.39326623830899,0.4391539102339743,0.7557306443020111,1.6976063497424014,4.0,0,1,0-1
301.0,132.78272399982959,268.4258905315656,17.453133936426777,291.0,160.0,0.0,7.665919115201447,10.259187462166757,7.665919115201447,0.3497192847223395,0.7383168306583787,1.1378462173485704,4.0,0,1,0-1
301.0,52.14940010006872,165.03533354116996,13.699235854222335,275.0,34.0,0.0,9.118844872815064,10.191724951764941,9.118844872815064,0.5845227068630268,0.9376794029823565,1.166149945330908,4.0,0,1,0-1
301.0,103.63863666907622,183.44363863059505,25.66642986019889,276.0,65.0,1.0,6.628747713797162,5.577371714300839,7.350504261100249,0.4335858762784266,1.0959021557223159,1.3231061277734621,4.0,0,1,0-1
301.0,108.76838856756186,304.4423780195623,18.63937245907618,275.0,108.0,0.0,12.250525393359952,10.102649793671718,15.084281431127744,0.3857118732672559,0.7974620230472391,1.4961877309991152,4.0,0,1,0-1
301.0,136.3886843103146,224.1424128462442,21.531255173668477,295.0,149.0,0.0,5.445656531716501,4.941562887499971,4.97015349278149,0.3053758495237355,0.4784959302383015,1.6025143334633796,4.0,0,1,0-1
301.0,58.762717374717994,59.561547482178995,24.7094553656938,170.0,10.0,1.0,1.3829495195173436,1.2671882406496482,1.3829495195173436,0.5407671508489419,1.2948180305136485,1.7308287396586355,4.0,0,1,0-1
301.0,133.58042796505185,206.31249752094334,22.42443042716663,124.0,182.0,0.0,7.941968466447372,7.910043850521999,9.596631621603425,0.6306202751370529,0.6750952793659064,1.4619397635058258,4.0,0,1,0-1
301.0,103.9162625609918,228.5996007175377,23.65988072428095,151.0,115.0,0.0,10.258040983855116,10.784576110702742,10.258040983855116,0.6594533492299397,0.6707166297276376,1.5401180418078226,4.0,0,1,0-1
301.0,131.9400425813405,200.97127238585674,17.66733027079143,225.0,45.0,0.0,3.634093998257349,2.224130915580031,4.222543807948463,0.5206608027680161,0.9909976239132812,1.2933196405477563,4.0,0,1,0-1
270.0,81.93832925944864,174.33424346510068,18.46610809159245,129.0,220.0,0.0,5.574906353526774,3.638930603269083,3.7747520931306413,0.6306809279959538,0.5535678920141859,1.155856662135763,1.0,0,1,0-1
267.0,89.34604458938846,487.52566719972515,18.575100246975765,265.0,106.0,0.0,16.95065147058963,18.855970317469374,15.697213424882824,0.48605085752530136,0.8193950903779659,1.6519441823768772,1.0,0,1,0-1
267.0,115.5388232144526,289.8988206166541,25.27696850133529,230.0,76.0,1.0,9.739663104504917,11.293559163124858,12.904591506870618,0.4769994479670755,0.7693481601749524,1.5436074800821173,1.0,0,1,0-1
255.0,208.5151330114298,447.64599798706917,25.459834234429344,222.0,84.0,1.0,17.134966321222336,19.704862224058985,18.0903612285121,0.5239669978938765,0.9259601895566938,1.597998766657278,1.0,0,1,0-1
252.0,148.65925623311227,813.0818881028508,23.050148474399297,245.0,121.0,1.0,6.574507373804358,5.02228693790056,3.12850301363992,0.34285877008027765,0.5596827052833988,1.5883074635012362,1.0,0,1,0-1
249.0,65.03063601464915,325.11816950646096,19.889143556328374,82.0,46.0,0.0,12.198693077176785,10.723548876945348,13.63019211819859,0.6379974325121169,0.6349696589819497,1.520337185218695,1.0,0,1,0-1
249.0,121.86290513311796,280.0102040569091,26.589286824267877,175.0,80.0,1.0,17.00905630775461,16.895505329222196,17.418516668963463,0.49158413536567047,0.7821273646102883,1.1843394403909033,1.0,0,1,0-1
247.0,88.54591088500386,286.32078426697115,18.47603630578931,244.0,152.0,0.0,7.339111061905389,7.971631264489716,5.2227246484480405,0.5229864956699416,0.7712189589628029,1.9053163471859733,1.0,0,1,0-1
239.0,115.52033888776836,325.86119337514765,19.646984044665277,203.0,118.0,0.0,11.262334656974245,8.468107960051418,9.556199937061933,0.5889435245345532,0.7096239885702229,1.1456621650239525,1.0,0,1,0-1
231.0,107.6707447804761,177.57384174997546,19.502345442793647,223.0,126.0,1.0,23.716356882415134,24.3998027298442,25.364823168284182,0.44146041429428123,0.82765156122877,1.9283119513008833,1.0,0,1,0-1
228.0,73.96556055290783,138.914921739444,20.026258325645443,151.0,100.0,0.0,0.9930006496561715,0.9486086383265605,1.509948239555218,0.5307155362098891,0.8146477059555866,1.3377026282427407,1.0,0,1,0-1
225.0,60.14111297083754,1051.6024482857674,23.1424852175587,64.0,157.0,0.0,7.137700364864188,6.10108552529679,5.574913591119254,0.6599625756742638,0.5710135368831859,1.7882287126311744,1.0,0,1,0-1
224.0,99.82162558438029,856.2267255606919,25.029528800978092,194.0,82.0,1.0,6.348887833786313,7.317242493715802,7.792668323433926,0.42987099941398643,0.5414931672400978,1.5404422208268642,1.0,0,1,0-1
222.0,142.47626285004026,340.78992483453544,27.7279693877381,222.0,150.0,1.0,4.702406385194656,3.92688237778314,1.6866337228301265,0.523597619255642,0.6929364927191581,1.8918686222401837,1.0,0,1,0-1
220.0,155.5212350180254,300.4290356138045,27.180037667341246,205.0,75.0,1.0,3.2896622967864197,5.730921597601191,6.4185610593326725,0.37015747880372324,0.5444429218950771,1.842795770298715,1.0,0,1,0-1
218.0,55.05627770442029,77.8182395877743,17.50906766931071,115.0,42.0,0.0,21.99380458280519,25.65677589502535,21.68929261493823,0.6379960840106583,0.8284989335220855,1.5485253039840496,1.0,0,1,0-1
216.0,46.90719369806705,264.8537516955534,15.822067522639738,142.0,30.0,0.0,13.247126103734756,9.689702020801732,12.303612879855852,0.6243546274495566,0.7692842231715931,1.424527314633965,1.0,0,1,0-1
204.0,68.25792443019637,181.52503886548263,21.052737193832755,134.0,50.0,1.0,15.022458480019173,17.12257019942091,12.985662325711086,0.5995450399376188,0.8269336864721523,1.7380443683643567,1.0,0,1,0-1
202.0,61.67445571773557,673.8498158266885,21.823089698868372,157.0,73.0,0.0,18.31996084441398,16.55303221876377,19.99995485937965,0.5599166880409395,0.9249288589329651,1.450959497540768,1.0,0,1,0-1
201.0,70.26208994141959,109.09747731305949,17.38110794420746,126.0,71.0,0.0,7.882139950373877,7.711192229263109,10.065618246566014,0.8020626334303868,0.8963404212068954,1.3434476390103929,1.0,0,1,0-1
200.0,58.47971363799613,321.81500284047854,17.200917538889833,163.0,32.0,0.0,18.887918726047623,18.84807889987624,14.711668132492523,0.6571457057002845,1.1594697661046238,1.8058669786772856,1.0,0,1,0-1
198.0,85.69269222565708,122.8583851021943,19.541842504736294,190.0,36.0,0.0,19.141406593451567,20.637004956068637,18.901957125518614,0.5149531773387628,1.0892504935558283,1.6545083894008394,1.0,0,1,0-1
196.0,54.793325551371986,252.04656268728337,14.756658963020064,159.0,80.0,0.0,10.637552267690891,10.77723283358517,6.721742205517238,0.5836751542398099,0.6729079589971533,1.502488787407171,1.0,0,1,0-1
186.0,107.2824416050172,124.53998823346335,18.95337733709933,176.0,90.0,0.0,6.0009128300447685,1.8687237131154006,4.191415155076927,0.4314802054576559,0.6955762401476665,1.3854717673099362,1.0,0,1,0-1
186.0,55.632731713588576,238.95179482250407,20.5114144814055,114.0,33.0,0.0,4.766427508570063,4.899461506720122,4.766427508570063,0.6055867758973393,1.0021349258258494,1.6706265701249274,1.0,0,1,0-1
184.0,95.45153474542138,204.91982921812513,19.69452551823282,175.0,72.0,0.0,32.12202508607112,32.16553376101433,32.878567441331754,0.5621058044659036,0.9572517473259913,1.8802751495902146,1.0,0,1,0-1
182.0,91.12042835692377,147.08599417372636,21.683644680039485,154.0,26.0,1.0,4.353539527907126,5.002892087266883,3.6440938043152755,0.5205919628571489,1.2464881919727988,1.6233355661570135,1.0,0,1,0-1
175.0,81.09003248629229,187.65075616924736,16.326979929864102,157.0,65.0,0.0,5.935690694316524,5.5412128405516725,6.241523112838439,0.39160787617601,0.4843850822708321,1.4556548445791277,1.0,0,1,0-1
173.0,99.30861214686497,277.64369496223554,27.20299079535462,163.0,124.0,1.0,18.566810802135524,20.151440720309747,20.541308432803742,0.5645537088772858,0.6327492150101949,1.2643858261112741,1.0,0,1,0-1
172.0,60.612804893585505,312.2676296379654,22.552196277684956,92.0,31.0,0.0,6.04536093114398,9.55481067498859,9.311166848311881,0.5925901053452715,0.7967139068066922,1.7350383373549936,1.0,0,1,0-1
171.0,77.35845138523523,303.7794448304925,24.574862456430804,51.0,113.0,1.0,4.628551911055406,8.536276295139917,7.834108352728658,0.6495493737224649,0.46935900489930826,1.7357356299414808,1.0,0,1,0-1
169.0,84.80470752490082,203.48453788977554,18.763462743129196,169.0,49.0,0.0,8.038373071869746,9.11502272840074,7.8480603628574395,0.5242754199258872,0.8661328711792341,1.624538154999441,1.0,0,1,0-1
168.0,62.117125044376394,138.92292222456413,19.65941786073767,157.0,64.0,0.0,5.632295573153779,1.6937889865358027,6.78706706601006,0.5876018170484211,0.8699008007337572,1.4428692822617812,1.0,0,1,0-1
166.0,108.62983271251524,348.947058744357,25.838514771033317,123.0,100.0,1.0,4.947691218573493,6.088811763229019,6.583736363321245,0.6262677920192731,0.5251963061095736,1.681237302678206,1.0,0,1,0-1
166.0,48.9372317960086,299.9302203152698,16.43099748945153,87.0,21.0,0.0,20.40740142382431,18.837893214643415,17.220528836534662,0.8037363864355481,1.134350156161283,1.7635715815590587,1.0,0,1,0-1
166.0,56.32401038332869,104.61147293630967,16.643927615306932,149.0,37.0,0.0,4.640586055997105,3.9523601870200453,7.746463592440244,0.6375724166444838,1.1006315096678312,1.50097417443439,1.0,0,1,0-1
161.0,142.3967641285827,334.1796836300228,20.051522453999823,157.0,107.0,0.0,12.426218150046267,9.728028959304746,15.428792181031424,0.500301298936027,0.44015119932311736,1.734994109085682,1.0,0,1,0-1
158.0,51.392088280336495,406.4459257275644,25.60588430229765,90.0,57.0,1.0,2.6332748658758423,3.6136851448900593,3.8933443778326797,0.6354894423729344,1.019474656767508,1.9762738964285966,1.0,0,1,0-1
156.0,51.82759290047697,131.70015492367966,20.805018881013964,130.0,54.0,1.0,12.288289427506264,13.381639969536698,11.899999508962557,0.6053896524052764,1.0069474386918449,1.5491524202175835,1.0,0,1,0-1
154.0,49.3650558175715,287.43661534662675,21.847782442547047,118.0,61.0,0.0,5.506926256286151,1.271971340662138,2.703924232516255,0.6045849486894417,0.6212758621341106,1.8551085214223755,1.0,0,1,0-1
153.0,94.88428111608174,290.25169670964914,15.024136874030265,141.0,111.0,0.0,6.974736732140662,7.897623123260466,7.87731687974977,0.7286503191260456,0.9732434759588737,1.4621651618458344,1.0,0,1,0-1
151.0,79.21691376380775,415.1746543141543,19.957531407418436,139.0,58.0,0.0,4.472704606879796,7.2482526159270195,6.727626375343929,0.5904901662761084,0.8589483636126836,1.998869155212604,1.0,0,1,0-1
150.0,102.36261195574653,363.2712776024228,19.648981149363145,143.0,47.0,0.0,20.735254367254534,21.559101599523828,18.953403683176365,0.5131679538245554,0.7611210571249976,1.4822953660109488,1.0,0,1,0-1
150.0,81.27191295080274,176.04030799726877,23.0736160585813,121.0,102.0,0.0,9.0871567158492,3.156821383836112,5.594386764516582,0.6467258950715179,0.7964873481076209,1.5082737307462475,1.0,0,1,0-1
148.0,118.23158697691679,365.8201856175065,27.27091394099282,102.0,93.0,1.0,6.022916006485638,2.4584868436201357,5.558492486152267,0.7559142148753318,1.0053266145232775,1.8330608460101696,1.0,0,1,0-1
145.0,79.36827714655884,242.8886881932569,19.947713391053462,103.0,54.0,0.0,7.121405479578382,4.311688099052168,5.476816550739484,0.8618800610519383,0.9446110320414354,1.2789181013539574,1.0,0,1,0-1
141.0,77.55216035656012,437.18670396915866,23.726472037079017,119.0,94.0,1.0,1.68483099485741,2.9723492588090084,5.978008787326593,0.5185361319430052,0.5328074086048431,1.6194627708465081,1.0,0,1,0-1
141.0,85.43300454344457,232.90003651480237,16.913566377568866,133.0,39.0,0.0,3.3889099138183814,1.4033895651387407,5.002077151269377,0.7136318263919162,0.9175495245746838,1.367007443163873,1.0,0,1,0-1
140.0,63.31038324359585,127.04672395383469,14.550619098628719,140.0,57.0,0.0,10.260827854760967,6.4400307535627155,6.688396056155809,0.5506225119600475,0.9686861610968095,1.3845412262940207,1.0,0,1,0-1
140.0,75.83879903920786,192.75437228613612,18.13996585432181,84.0,41.0,0.0,10.840628575152168,11.685827874502285,10.31835609492808,0.8157765667091962,0.7353526812960554,1.3116978951275893,1.0,0,1,0-1
140.0,35.940559620192964,113.20298759750382,15.325449765691522,40.0,74.0,0.0,11.524283737659314,11.211600006500912,7.191053997205882,0.7324300882606724,0.7810298309404987,1.5487280755383224,1.0,0,1,0-1
139.0,63.015846736518185,239.98662750325497,22.050065016924254,115.0,78.0,1.0,11.365553480506748,13.591085709539344,11.295022149331741,0.7063346372166106,0.6676172121542503,1.6947645397768711,1.0,0,1,0-1
139.0,107.76046552320322,239.46693905644312,21.353153150446357,128.0,55.0,0.0,4.3837249423158555,4.409051362527047,5.058326730642573,0.4838547700880566,0.9775373384770376,1.5192887291422843,1.0,0,1,0-1
137.0,104.16202737961825,647.1389208653956,23.922756352741963,108.0,13.0,1.0,5.134591974280544,5.132202702086364,3.6333271974564028,0.48702545326106367,0.7238812340246517,1.7993315764952782,1.0,0,1,0-1
136.0,98.66055427227428,313.7146726614027,19.537663329921987,137.0,86.0,0.0,3.8316211864122796,5.21453406777038,1.2790954149265368,0.7196487982344053,0.6673862165242131,1.9647610558272022,1.0,0,1,0-1
131.0,87.46165853608024,160.71071531833974,25.67331177586406,111.0,4.0,1.0,4.007148933937411,2.9701170016363805,5.269193807408514,0.4299955318142896,1.157203015239009,1.470329977342146,1.0,0,1,0-1
131.0,55.54425959108563,130.0495918468127,18.031113933282427,71.0,65.0,0.0,5.059852478664821,7.200257927360936,6.518959059142088,0.646484261679404,0.9879153148458053,1.4548944669599828,1.0,0,1,0-1
130.0,52.492285885219594,130.39450048078217,19.425839748333107,65.0,48.0,0.0,3.4127651344313716,3.8130050452518742,2.9377609105891436,0.6629859815195464,1.125459107873598,1.23182552612396,1.0,0,1,0-1
129.0,125.32649639820885,366.6350336888873,25.639850522532868,128.0,116.0,1.0,27.273163825389556,26.429459947613626,23.065733602460742,0.5372496561302975,0.5235568777385388,1.375386068318446,1.0,0,1,0-1
129.0,53.884792678645056,101.9586409473903,24.805997890255043,84.0,55.0,1.0,4.7222978027775415,4.053159974580062,3.7653764536218404,0.8409232176747253,0.8649700545354345,1.4539244643367466,1.0,0,1,0-1
128.0,61.21715741792633,131.35585488494928,16.756913203899302,128.0,51.0,0.0,4.299998563257745,2.6644185887237306,2.364947308629487,0.6229960344264027,0.7575545457897296,1.734974184666731,1.0,0,1,0-1
127.0,75.56862506231434,238.2729453102494,14.176982974726833,65.0,49.0,0.0,2.946903427201547,0.08040498427079572,4.332867680579939,0.7248499642361498,0.7418547370710664,1.0540124860417999,1.0,0,1,0-1
124.0,45.01816858344091,122.4040753403959,24.180713774643866,32.0,24.0,1.0,6.124873848185017,6.886373397080945,2.533439921266085,0.8679978631418266,0.9562825519387268,1.3891883492224293,1.0,0,1,0-1
119.0,59.948658905781365,308.29357082315784,16.978335816311226,85.0,66.0,0.0,5.826169211702483,8.828643078006628,6.57720465434806,0.7716396656521127,0.6288757982803257,1.2040304234235113,1.0,0,1,0-1
116.0,46.53121052496157,154.17764366069153,19.898730931460456,47.0,108.0,0.0,3.784989347705612,1.724011591335735,3.2426740872393087,0.8610302965279807,0.4595432730690126,1.1421027879926209,1.0,0,1,0-1
110.0,43.56735399826568,119.40720978025387,18.607498053904585,48.0,51.0,0.0,1.982793396342719,3.7811785493423997,3.925013600165946,0.7581239676700945,0.6091836052300899,1.666169853973829,1.0,0,1,0-1
110.0,141.16568888180316,683.2075978493945,28.650259664533273,96.0,97.0,1.0,10.202797913520293,8.726433835500599,7.128807550581111,0.7111986230722293,0.639804562490694,1.700150250903301,1.0,0,1,0-1
109.0,42.81401670174665,136.48102319228315,20.557486724658087,38.0,30.0,0.0,7.35073728342511,1.9190291301509177,6.518726769489841,0.7513500352678275,1.2498068287624842,2.2302266071263297,1.0,0,1,0-1
109.0,35.58654564389853,83.64255806299333,16.11219142396264,28.0,47.0,0.0,5.74123779410531,6.5952238392058815,5.74123779410531,1.0592346205465604,0.9012888397832616,1.2601401844733802,1.0,0,1,0-1
108.0,78.9134067451982,175.88201308858916,17.432057992907,104.0,95.0,0.0,2.3749721772043046,5.760980547447404,7.1058634376959775,0.6612343190572372,0.5903205469658558,1.6796307788238003,1.0,0,1,0-1
108.0,59.77434063812177,272.98217051229375,16.9533708689097,77.0,41.0,0.0,6.057255547622127,7.069117163050272,5.89225365148537,0.5540585353126984,0.7848810868834172,1.5958508209046285,1.0,0,1,0-1
106.0,48.27144783965117,202.23202480542102,18.224279028265617,32.0,81.0,0.0,6.358003246638658,7.157462889482299,8.729791142337394,0.9926680989114816,0.5144486867761545,1.4742882694769104,1.0,0,1,0-1
106.0,96.39548872093141,207.81856438906578,14.399408178513886,80.0,28.0,0.0,2.119889909077544,1.3470959999197165,0.6791190407629927,0.4004080982317262,0.6986788464225799,1.3467646409547305,1.0,0,1,0-1
105.0,58.800854602117155,109.49374515937828,21.757834074948196,55.0,11.0,0.0,2.9093506593433127,2.9492878513643594,5.797728920535065,0.6676486904470899,1.3700176064759804,1.96140732105218,1.0,0,1,0-1
104.0,42.882892399897685,52.383367404989066,21.722307015184594,83.0,3.0,0.0,15.555941631681934,12.157341939128427,10.458828987844685,0.7069462744746037,1.2954175265702241,1.820018433233332,1.0,0,1,0-1
103.0,70.6390320426048,132.57502796261232,26.813839790732505,91.0,89.0,1.0,3.0622675697666275,7.042610995883235,7.078154609531407,0.8505123398402183,0.7729869567787423,1.5910144712511425,1.0,0,1,0-1
103.0,50.77801255951334,249.8481524743996,19.01607915192936,40.0,99.0,0.0,11.49635998599409,11.592699448742763,7.010751723849489,0.9703922997512796,0.5553670821286519,1.3580299432126972,1.0,0,1,0-1
101.0,53.99147049554268,98.98254027378144,23.79798680504955,66.0,6.0,2.0,4.048358071086657,4.048358071086657,3.559920079574085,0.6585561013689034,1.0585625140360275,1.3640804064426277,1.0,0,1,0-1
101.0,51.092723108822355,163.58600559185,20.458126180574652,50.0,100.0,0.0,3.709109388183221,7.3233564327760226,5.39140907431625,0.7763481018899206,0.6085658550863056,1.6116556427164874,1.0,0,1,0-1
100.0,41.776299216467805,109.25541653416741,16.372075736252704,58.0,35.0,0.0,8.097136635652141,7.2108402083014775,5.292514637233626,0.8398648111613669,1.0966289513667613,1.376575444644707,1.0,0,1,0-1
98.0,60.967113658977674,384.6072453937173,27.170903838852166,98.0,66.0,1.0,14.286106016570637,14.952520607016297,12.554201828817625,0.6440876601227632,0.5781605661543244,1.6594502228574937,1.0,0,1,0-1
98.0,170.92844220328095,217.55984205449516,17.730177065004927,89.0,29.0,0.0,6.725383429965027,5.7223162764524655,6.725383429965027,0.6548397796414087,0.9287289369979019,1.3197884329280405,1.0,0,1,0-1
97.0,186.6407739118842,349.2696592614249,19.332305933627396,90.0,44.0,0.0,4.196750464952697,1.3600053978032052,8.068606182157284,0.4663920860259525,0.6602059026555918,1.6566721087459422,1.0,0,1,0-1
95.0,41.28133704169943,111.26721712262905,14.483305955842251,48.0,62.0,0.0,9.20418548895832,7.441522973597096,8.593862230119319,0.8063551846458125,0.6657755741400982,1.3636258582553997,1.0,0,1,0-1
92.0,44.162542159037066,213.61919486554402,17.514304963788977,34.0,91.0,0.0,5.398010236302194,5.178012681739837,3.910009312338177,0.7817147873111511,0.3082320379408808,1.337670852965851,1.0,0,1,0-1
90.0,64.82314539122126,213.98194736023888,18.241935627893877,40.0,90.0,0.0,2.5599057604071116,3.000764424860402,2.4743931106728714,0.826370890909361,0.4396823812126254,1.419009652708784,1.0,0,1,0-1
89.0,70.03295568051844,132.32956844531677,12.55889091344404,75.0,56.0,0.0,1.0495866499193451,7.153833219596391,7.993365874590232,0.7630911706241464,0.7239586392123963,1.0391139229787993,1.0,0,1,0-1
88.0,63.95046416638408,163.73727310396197,18.127988338740032,88.0,80.0,0.0,3.509120831172673,0.7621829564160636,1.3677653969185053,0.6820128720515604,0.5745085615860723,1.2565067317415293,1.0,0,1,0-1
88.0,69.69685929160896,357.08056246475644,14.756111936527784,46.0,32.0,0.0,0.4838411962361881,2.3007638316853143,1.8493708305478558,0.5239472856516814,0.4271024383062685,1.565490241600685,1.0,0,1,0-1
88.0,68.2200792193913,148.6661331545908,28.727704171389938,70.0,39.0,2.0,4.395537543008998,7.113783155130358,8.621505168299352,0.9685630682979287,0.9786978083265843,1.8004246215168915,1.0,0,1,0-1
86.0,49.23628922833457,168.75871309462622,20.277349731083003,55.0,64.0,0.0,9.173652898933728,9.631336283709821,10.86793603846797,0.739979651043239,0.510612034713617,1.7832042769058754,1.0,0,1,0-1
85.0,57.930994407818126,190.32803968578096,18.972937458436924,85.0,40.0,0.0,10.028660880610614,10.080498019196073,10.211982749722619,0.7527020210401336,0.7647059835195992,1.8091893558437075,1.0,0,1,0-1
85.0,45.562057131647045,194.43307982806715,10.465344029241908,28.0,37.0,0.0,1.7500768970855403,1.695423128001726,5.325454635771132,1.0086319425912347,0.5640236684939105,1.3242578779666778,1.0,0,1,0-1
85.0,64.74442863849315,105.61849845826211,20.874206668770366,64.0,15.0,0.0,7.087872121785091,7.100967213821458,8.103853186047376,0.6545026287222058,1.049753434262627,1.4187912900555042,1.0,0,1,0-1
85.0,65.95827039739932,83.43117213309043,23.550148662444233,35.0,5.0,1.0,6.590098665087149,7.422193571726977,2.0140472411197794,0.8963133880795674,0.8982047324090809,1.698066883057088,1.0,0,1,0-1
84.0,40.669902519814066,57.46953648094834,30.935050244223554,32.0,4.0,1.0,1.7838799696094767,3.4357526436139416,4.597235547939788,0.8606837105374446,1.0580554868173133,1.5648581460864728,1.0,0,1,0-1
84.0,81.29212539376948,121.25699662914023,15.180480038039656,82.0,37.0,0.0,4.833448629478165,6.391714361152749,1.7767500616992047,0.5868541372230113,0.46611383088055086,1.3746671451547419,1.0,0,1,0-1
83.0,189.86430638044325,421.68886775424585,22.260034288406512,53.0,27.0,0.0,2.6141312863336696,3.2537312139804344,3.4655663818937605,0.3694612911893919,0.5314491434954234,1.0886920799105146,1.0,0,1,0-1
81.0,68.01504475323497,275.1072795662917,26.641428691550097,40.0,81.0,1.0,4.775787162691933,1.5192307430120089,7.581981313394108,0.6449393327962843,0.4272439129148375,1.2552438355928675,1.0,0,1,0-1
76.0,62.26208276284288,147.38281206147428,24.916728163621833,30.0,3.0,1.0,6.494049410595466,5.150944762875933,7.376956437532018,0.5823023297817388,0.5917247954310908,1.3353484621493066,1.0,0,1,0-1
76.0,160.12863608845896,523.6725386179154,18.904155906371187,69.0,76.0,0.0,7.046677081664188,8.782568838723188,4.648997688164194,0.6756954792922096,0.5595292367849929,1.4954244889077082,1.0,0,1,0-1
73.0,89.8282976943395,797.7339652232794,25.181416799847913,63.0,73.0,1.0,6.316418111050293,5.411752239648219,5.365487213848966,0.7762441781153046,0.5237315945661863,1.644434916760468,1.0,0,1,0-1
71.0,101.68938327703079,262.34028680976957,12.470701508297047,33.0,71.0,0.0,5.119618107731706,6.741430333471154,1.292693582663524,0.8221056329596987,0.4893788905954496,1.5452161471656591,1.0,0,1,0-1
70.0,53.150576087339374,269.67013690338644,18.41978599300214,55.0,45.0,0.0,11.237843490348018,13.852852774173913,12.441844665622117,0.9281709502468638,0.8361338512165732,1.5742910619502126,1.0,0,1,0-1
70.0,44.959847098260695,219.806910575882,23.763361877517127,31.0,40.0,0.0,15.116104127947274,14.172653622830858,18.248647981287313,0.841066464642858,0.6575211422895724,1.5628714528747107,1.0,0,1,0-1
69.0,37.087833542373716,133.0581705904684,23.40765815053733,41.0,10.0,0.0,2.486178592587517,1.5081132939245168,4.985275121007322,0.7404023566419007,1.0537251558457525,1.8224737324037181,1.0,0,1,0-1
69.0,45.0868444501499,219.87543014138464,22.841943170669595,17.0,69.0,0.0,4.666307116708367,2.8790570446467694,6.105518124238692,1.0141997221169679,0.7105703981650847,1.7869741415309783,1.0,0,1,0-1
68.0,33.836972601868524,52.8583203577145,14.22875687115688,32.0,12.0,0.0,7.834767464058391,9.954593384280727,12.415958659442257,0.9101622466746325,0.91487348677145,1.725298146402516,1.0,0,1,0-1
67.0,51.54169607798584,347.343197400297,18.5553468128431,32.0,54.0,0.0,3.6828867901200595,4.212664103607394,4.799763817802675,1.0464062702152974,0.6224857567674424,1.370386921705019,1.0,0,1,0-1
67.0,34.995782397891276,231.28161252862017,23.493020134421705,11.0,59.0,0.0,7.230209578860139,5.795816218494165,7.155772936925088,0.8114142612440869,0.47774110189979097,1.5759505084037448,1.0,0,1,0-1
66.0,89.803234756715,272.9256113428785,20.8366503974163,54.0,66.0,0.0,3.159327179955924,3.0712684720345123,4.119626817968936,0.9643076696686592,0.6829658403960353,1.5550880259549713,1.0,0,1,0-1
66.0,43.41228466768427,76.8765843059739,24.590023055635193,32.0,4.0,1.0,6.2178729104995165,5.306014706721874,9.058595348018088,0.8242627498856554,1.3695311238715708,1.70671904103126,1.0,0,1,0-1
65.0,45.09206110316819,229.16644777870746,20.123795396199036,46.0,38.0,0.0,3.6385575546047337,4.37340063084265,4.365903777615393,0.6441933374364356,0.8217973421203788,1.3492002838988058,1.0,0,1,0-1
64.0,34.947395252479836,79.42870468023506,24.86786419056476,21.0,15.0,1.0,2.4016695359474864,3.54308315482895,2.5398881218370373,1.1087161463772826,1.423997632745865,1.6699518000448483,1.0,0,1,0-1
64.0,36.069973656907415,241.71817347296454,12.17823006800394,24.0,58.0,0.0,3.309617612538082,8.508643287773376,3.522549861813439,0.9160238825108732,0.49701929291103064,1.4950570360506945,1.0,0,1,0-1
63.0,69.87193271041673,109.60335345720574,22.619875714200354,37.0,17.0,0.0,6.0712555417938585,4.752019965227051,5.162861408055393,0.7885792262439989,1.0002086066842486,1.6953583601682345,1.0,0,1,0-1
63.0,38.95674555202708,115.57828476242784,19.550915324140167,12.0,21.0,0.0,1.6759618730035664,1.3480434252506308,1.3617970228242702,0.8779215321752382,0.742441442965145,1.7643836125212569,1.0,0,1,0-1
63.0,46.55875576970607,126.81999684507862,30.79220578754358,16.0,25.0,1.0,1.5544583574223594,1.0867176934427423,1.2222629644800875,1.114183716138725,1.0380695961961344,1.1938197664740793,1.0,0,1,0-1
63.0,33.08549961300195,50.43583215698837,13.818038181139896,39.0,20.0,0.0,0.5415319608229718,3.0789192346132395,2.88649247527069,0.707430220519933,0.8191132981965826,1.6109054310750561,1.0,0,1,0-1
61.0,131.31417346045484,445.63852114294343,32.16164518900144,59.0,38.0,1.0,4.207922167190158,2.5927746738279933,2.5218603400969517,0.7692169379435058,0.5648333701575401,2.3275053972594626,1.0,0,1,0-1
60.0,38.39996344498711,173.51417012126893,15.040552553172864,19.0,36.0,0.0,1.922209873395135,1.901530502560119,6.237224615927133,0.5876227052121503,0.27829941326947694,1.4416063692085193,1.0,0,1,0-1
60.0,59.352472595477266,208.02624172133702,13.962906129018432,58.0,60.0,0.0,1.4114990008527741,2.070351411014493,4.742200294775131,0.6615262324166771,0.3768484923593044,1.5332712673404503,1.0,0,1,0-1
60.0,118.19041194733366,180.63018194713953,28.42071879048758,58.0,47.0,2.0,7.287747371517569,6.245702767858174,9.36273388507137,0.6731556778414235,0.833511907629461,1.6479805344174696,1.0,0,1,0-1
60.0,47.32045721331168,66.28341606952144,19.793899499108587,35.0,7.0,0.0,5.757945834400117,2.9560646613216153,5.340348753209388,0.7303270553463762,1.1088947199929535,1.3457712349299715,1.0,0,1,0-1
59.0,47.1324929374452,132.22646538485017,22.272692002231494,15.0,6.0,0.0,4.0517394494311345,2.28158615089147,2.28158615089147,1.0439628748872953,0.908088753452451,1.8518100704174947,1.0,0,1,0-1
59.0,55.21661742698464,562.0895138699153,19.485325299514447,45.0,32.0,0.0,2.0599864729575867,3.8173521957098124,4.6284944910092225,0.9360291401178009,0.6702267912704976,1.7270323304923696,1.0,0,1,0-1
58.0,68.96668970930513,165.13035099842418,19.52217845287599,18.0,27.0,0.0,6.555746835723428,7.488463449540918,1.59292722423589,0.8094150963918036,0.8248881584210157,1.4783564887259923,1.0,0,1,0-1
58.0,32.69824252150076,52.11752879624796,10.299108709129747,36.0,7.0,0.0,0.8328300323800215,5.2406466307189765,1.9240269521168545,1.0157075296986469,1.0280279428438113,1.394685381146748,1.0,0,1,0-1
58.0,115.124457956375,395.13020289221464,19.338961706918806,52.0,58.0,0.0,2.6020378883070263,5.932952152054897,4.334116777087209,0.9061622590639274,0.7318868891628133,1.6370317677050419,1.0,0,1,0-1
57.0,35.556856535283195,37.3717579272802,20.62691285709666,22.0,5.0,0.0,15.271255129118378,14.675880030284759,19.287836337315447,0.920849807736942,1.452820286756972,2.002960263483994,1.0,0,1,0-1
57.0,34.93216025784989,235.1956575716729,14.304472188736895,33.0,57.0,0.0,3.2306967579750943,2.2718846651274927,1.9716047870503666,0.6409935034038627,0.23815197294086965,1.0261071318727455,1.0,0,1,0-1
57.0,34.452306063024146,95.7947300073473,18.272548220914558,15.0,57.0,0.0,15.91860924147595,18.099294076569876,15.465919367421172,1.2828392731589087,1.01417885592834,1.8124714303284584,1.0,0,1,0-1
56.0,124.11332000635025,158.4470207153091,21.45308575513412,53.0,43.0,0.0,5.257771288029803,1.6873327941053722,5.569467684580785,0.7937960484139421,0.9424222662068698,1.957222518972766,1.0,0,1,0-1
56.0,61.588209178909835,60.90925206397105,20.68458127186907,37.0,10.0,0.0,1.7524653228942946,1.8038366676543796,4.427659553712798,0.8946197926043187,1.1726562113659467,1.435994342214282,1.0,0,1,0-1
56.0,110.17055003565414,400.8309560964239,21.291932448986596,56.0,56.0,0.0,2.4111129680215138,6.1855613088384915,6.110210752211822,0.9338117160450539,0.8262127091724903,1.560913068642867,1.0,0,1,0-1
56.0,33.13575336882523,623.7365836471358,21.844369420014026,29.0,56.0,0.0,2.9021994641583846,1.8113163846479814,2.2633685077572183,0.6541274152189599,0.18333041470055764,2.130788306035847,1.0,0,1,0-1
55.0,64.33116521656272,92.09700673743664,15.435642368542501,36.0,10.0,0.0,3.603351664408311,0.7489347380198524,4.178095086653477,0.8238000929941591,1.292830780612305,1.5477002357968819,1.0,0,1,0-1
54.0,75.98145266973127,139.74890562549623,14.495043551868921,9.0,22.0,0.0,3.280697307485565,3.5946222285904486,2.8940784902347603,1.1161228782941883,1.002334545538962,1.4356411524964265,1.0,0,1,0-1
54.0,47.39886128488242,165.15617431384965,13.651383679921649,23.0,54.0,0.0,2.521863479859001,3.14408152579622,2.8512154564339154,0.810830589635885,0.3400888962174451,1.4046678090440519,1.0,0,1,0-1
53.0,69.32644394329884,116.27432979732392,18.45466464959625,8.0,6.0,0.0,3.3598299523730644,4.059389277676869,3.0461543660329853,0.7508068195744918,0.971146159086145,1.3940577552147189,1.0,0,1,0-1
52.0,69.87953948581534,182.01457830506428,19.02662593558083,17.0,4.0,0.0,12.880429631523356,11.20160953685351,11.768643270766994,0.8819241246762941,0.7715106611096737,1.6132092508359515,1.0,0,1,0-1
52.0,41.167433232890886,76.24459806997167,21.337638978583172,11.0,3.0,0.0,2.292711540288332,1.9076053273464193,3.657055309502142,0.8487094546037618,0.8608453809145834,1.4760314101739096,1.0,0,1,0-1
51.0,33.63913459561826,152.99755853330322,15.774524744023655,10.0,39.0,0.0,2.0466758123552227,2.6401092974294835,3.4552622465567575,1.051363895958684,0.580233132315986,1.1970418062989117,1.0,0,1,0-1
51.0,53.69764786921279,336.3763651528481,12.83229897323838,47.0,51.0,0.0,5.254568332655067,4.121720226561818,2.040274881347738,0.7349258805841763,0.6210532525105001,1.0582623557033428,1.0,0,1,0-1
50.0,65.17211519451895,291.45856489168875,16.56876660051622,39.0,7.0,0.0,7.71342666463933,8.352617433589687,6.868300646523188,0.791714888711938,0.9901953984625,1.0849465963681213,1.0,0,1,0-1
50.0,43.69690893431932,127.60051695824802,19.492656595311885,19.0,30.0,1.0,7.2128512312322295,5.616326716673288,6.0297955933082985,0.8651900510530149,0.82945436959761,1.6487960221577707,1.0,0,1,0-1
50.0,74.88001005730762,88.24910912725535,21.780489046346297,42.0,10.0,0.0,6.197610640821145,7.093295304834869,6.699409892099329,0.7418407379734991,1.1162087623603887,1.8378132210716518,1.0,0,1,0-1
49.0,40.31480599917531,123.25243628222145,13.98198093335231,40.0,41.0,0.0,2.9797755306064055,1.0985689329175676,3.30782435346751,0.7275214086953901,0.4380394535446013,1.2747038871152077,1.0,0,1,0-1
49.0,123.29771416160834,95.27705274944022,18.054895511740956,50.0,7.0,0.0,6.37305613146809,9.361176590722664,4.707239825568163,0.7176811643810197,1.162853473417599,1.2463073037586452,1.0,0,1,0-1
49.0,58.36599320324606,167.84019551836857,17.42225652521968,44.0,44.0,0.0,7.667051531002751,11.488596990022797,9.076973309072578,0.8228655458703241,0.9554030011076297,1.5054514882342025,1.0,0,1,0-1
49.0,35.18742164722049,84.57853564933941,13.43554237029384,36.0,25.0,0.0,3.7013373656518618,1.4091724177739724,2.538956300420106,1.124882391287113,0.5938475995222644,1.0781394135208484,1.0,0,1,0-1
49.0,111.77296677660267,265.4759448487594,16.550244670107197,45.0,49.0,1.0,1.1313837035667627,0.6941507736763476,1.2666261161488221,0.4144366097645467,0.25195386748375587,1.4202825892519748,1.0,0,1,0-1
48.0,98.05843338101835,221.36511156772823,12.33267434860532,17.0,4.0,0.0,1.2417718072846788,0.8198243966712058,0.9618537075142796,0.7716675231268106,0.8537379557425191,1.3816015009035065,1.0,0,1,0-1
48.0,150.5874679256192,361.46475134161506,20.780404020348374,48.0,34.0,0.0,11.579804779528587,9.427627726893606,10.828708465011097,0.7386833771162814,0.8228620214831662,1.4154174730866764,1.0,0,1,0-1
47.0,34.53332349537979,208.19144969136653,18.011932879568057,27.0,22.0,0.0,5.234150942765164,4.784652049799493,5.1399112678593,1.2438176883488485,0.4368475299861031,1.7722949403234431,1.0,0,1,0-1
47.0,33.44045522148637,119.34178178743092,18.481564828658314,16.0,44.0,0.0,3.900313677926051,2.1136498056995303,3.9252335625110835,0.8321111302626798,0.4486568350214659,1.0108276275370258,1.0,0,1,0-1
47.0,31.96305637120112,137.57386251757347,21.40028890725462,5.0,15.0,0.0,5.650594229107708,5.730483097416773,4.496975662771217,0.9145443370277644,1.220296854963036,1.1638621028967802,1.0,0,1,0-1
47.0,39.77853839406653,95.6502685648041,28.264044757490627,12.0,3.0,1.0,1.9745203180021509,3.271910224456615,4.538557767890769,0.6721163364669154,0.9024951441674757,1.4842500972899253,1.0,0,1,0-1
46.0,85.54800139913927,175.08901638424257,13.830398307867751,43.0,44.0,0.0,8.867014590557151,7.432935186877032,8.187691107363127,1.0418285845691357,0.6504778071745375,1.485601303924783,1.0,0,1,0-1
45.0,45.190759237517476,89.27741967713074,19.072433115273768,12.0,12.0,0.0,3.9674880153418877,4.949353039042498,8.084066620446746,1.2747760551162723,1.1361101978045025,1.640637853757082,1.0,0,1,0-1
45.0,33.066839693123825,59.0982257332755,13.923611475719612,13.0,4.0,0.0,2.9697905793779253,3.975397241723845,5.428884495031139,1.1663049197130066,1.39453741366379,1.3135526378324853,1.0,0,1,0-1
45.0,37.085499506748725,398.1774451719558,15.347509716405716,13.0,37.0,0.0,8.903870497251434,7.9584658269099195,10.270460918133681,1.0866477380730624,0.2562788614406913,1.8104665092596461,1.0,0,1,0-1
45.0,39.569389673440746,97.70001981571397,20.19592618080443,12.0,16.0,0.0,2.2226650443449207,3.868296963739788,5.426595037467417,0.8152712162380462,0.8010774189823487,1.5194201495554753,1.0,0,1,0-1
44.0,37.237584640111294,208.16665931775762,22.11869766720898,16.0,25.0,0.0,3.6315371038624247,5.4543235627219575,2.819973083624348,1.0111729185791127,0.9334624426290162,1.2911382852284465,1.0,0,1,0-1
44.0,38.3415915501717,53.72620557503064,14.586121234251442,17.0,8.0,0.0,1.8342276399272621,2.0761489356171756,1.1147575801887155,0.7557836237786074,1.0823181902080647,1.6636412887013992,1.0,0,1,0-1
43.0,53.91588760396431,365.449786110197,19.155926612738735,32.0,39.0,0.0,5.04058652776894,4.213891506927363,4.633473576281436,1.1201918886060427,0.8062265335790821,2.391226020715214,1.0,0,1,0-1
43.0,33.10673227296421,68.23413778597741,21.472017522728216,13.0,17.0,0.0,5.062250079146717,4.17177937896978,3.995314013787396,0.7770819718618032,0.6459447124791209,1.529581293068185,1.0,0,1,0-1
43.0,38.478147400368385,85.20484187889606,21.24724054582507,9.0,10.0,0.0,1.3906960614867245,1.1610812121080716,2.4612702687633665,0.9226065807219801,0.9109574034657233,1.7792135763875012,1.0,0,1,0-1
43.0,37.37836353333936,69.53281124860129,17.02746276351786,14.0,7.0,0.0,4.039575633485724,4.189968370642662,3.4077684858925457,1.01435048850724,0.8202122568532046,1.5832125556554013,1.0,0,1,0-1
42.0,33.4564882844719,227.48780540939643,17.236645864241293,11.0,42.0,0.0,2.2643605129151054,0.7714667133438351,2.5012867894294746,0.9732970208936228,0.34146820624105506,0.8871932639473413,1.0,0,1,0-1
41.0,32.47572971222688,164.88135261484126,24.006059905559724,13.0,5.0,1.0,1.4205556142857563,2.6997519744446983,2.014935125984256,0.9718152277925887,1.5856199069234314,1.4651599885871736,1.0,0,1,0-1
40.0,52.2205050621415,154.88861732007723,10.387761592122052,20.0,22.0,0.0,0.7521495074126878,2.692757781973429,1.6135717564526442,1.1747676816550932,0.7111840942077193,1.6666687777220857,1.0,0,1,0-1
40.0,52.00236998902053,155.54845772725244,18.265792597654066,29.0,40.0,0.0,2.213486193685704,3.3453380156020516,3.569488252529726,0.7997033463522498,0.6304986258592852,1.4475855592524787,1.0,0,1,0-1
39.0,29.569539295213108,89.7120173144927,12.500699603304575,14.0,9.0,0.0,3.878424317005942,5.36457097921425,4.070033317791931,0.8073079495589829,0.9931589175104167,1.2937052946126375,1.0,0,1,0-1
39.0,40.89923287823838,113.48790681723996,31.929096704568234,14.0,19.0,2.0,1.3518824723527985,1.3733520437783402,1.4673225115267665,0.6879596751296613,0.6163225743305626,1.3464905155703464,1.0,0,1,0-1
39.0,28.64946034629029,58.52172172830559,14.694796831415786,18.0,4.0,0.0,4.172712807659998,2.748445574900006,2.250193358516618,0.987484111647546,0.8365207738090928,1.2029320596755981,1.0,0,1,0-1
39.0,34.166066830596016,106.56545241528949,12.556478473715174,26.0,37.0,0.0,2.7594000358734374,3.3028537710312693,4.310082367092518,1.075611031225414,0.4460833577622398,1.6415228893266647,1.0,0,1,0-1
39.0,76.54160615721385,306.8782006144503,21.98473044754625,20.0,31.0,0.0,1.503744842729289,5.2661055440707045,5.828482342102626,0.9772014898239951,0.7601105101117099,1.476097716784037,1.0,0,1,0-1
38.0,40.282661290967745,155.37651129772942,10.399763271770786,33.0,36.0,0.0,3.5124706263755923,3.6088309124330795,4.974853681087604,1.1177526497101817,0.7487762774543497,1.2879104624556388,1.0,0,1,0-1
37.0,37.67064974761872,52.39255974189881,10.418335439261957,20.0,3.0,0.0,1.337115030258892,1.4824160805125342,3.048463445146988,0.9387994186440692,0.8992623766799149,1.306632545486718,1.0,0,1,0-1
37.0,38.38285687955539,52.759119961990535,15.29193546283148,17.0,4.0,0.0,1.3592483501191137,5.079817408025401,2.0806311306944982,1.032918773996871,1.1772136747889455,1.458962952409778,1.0,0,1,0-1
37.0,38.92845612580108,99.09436706722464,22.358192250909138,18.0,6.0,0.0,4.512857602016152,1.9636913119369357,1.3950590701447694,0.9675127441538689,1.4051831298790234,1.8517704771170238,1.0,0,1,0-1
37.0,77.33209539975523,560.061224617866,34.166254538315336,14.0,37.0,1.0,4.659114581847734,6.442689142523306,6.641775499844876,0.9422069247333348,0.5879160103063633,1.9294034817141814,1.0,0,1,0-1
36.0,33.46387780686272,69.28744692786111,19.14032915587858,19.0,9.0,0.0,2.7469764361234015,3.3945479016440565,4.0428346753431175,0.7264160330814761,0.9361233571280162,1.4886347734928225,1.0,0,1,0-1
36.0,69.52131241089931,727.4325581162278,13.901450634072459,30.0,25.0,0.0,4.486804818695075,6.611961447900713,10.068054524966238,0.614955420303037,0.6854379396078059,1.6980929135094969,1.0,0,1,0-1
36.0,30.120014616000557,1096.0472239416042,21.65159940577175,14.0,36.0,0.0,2.13316776375521,1.2232026552817816,4.35025124011525,0.7927907237188789,0.19976725078559718,1.7699328294438108,1.0,0,1,0-1
36.0,29.53406410816749,501.27729265358124,7.7427785848369775,13.0,17.0,0.0,1.4943546737164721,2.5973342935801753,2.555440414033677,0.7543696201758385,0.7077681437691031,0.7615560428998512,1.0,0,1,0-1
35.0,56.873993550905254,46.450998964104265,13.89934336712618,25.0,4.0,0.0,3.292123035310554,3.131216386044212,2.6762572519518386,1.0116137762998165,1.3268469465663881,1.3528899781582453,1.0,0,1,0-1
35.0,56.99537627507757,576.2514910207587,22.04606581072644,18.0,35.0,0.0,1.4998502913542835,2.616067477926427,1.9425794019975833,0.5428292130579179,0.5962035050291031,1.7880084941674133,1.0,0,1,0-1
35.0,38.535007933289336,144.12054694665284,18.16952007300494,13.0,34.0,0.0,2.0678693618487136,1.657349563748608,2.3269292238072006,0.7947612734442362,0.3932626851744898,1.2455298859428112,1.0,0,1,0-1
35.0,33.094565183677,67.56598503774181,26.32207908073916,14.0,25.0,1.0,5.292452520402611,3.8818979058621434,4.5591394771352745,1.1095472909644002,0.8943149192555694,1.989085230130364,1.0,0,1,0-1
34.0,65.02834856645842,96.23941698009962,18.633194865178044,22.0,5.0,0.0,2.3233946802873304,2.3233946802873304,9.310116520988363,0.42224765184205404,0.7221599092505591,1.722343855942348,1.0,0,1,0-1
34.0,74.49626061436413,472.87185314923727,23.541287804480156,31.0,11.0,0.0,3.257705024591625,1.7367514551477403,1.3480201686590025,0.96683324900385,0.6452394910261149,1.0345988101964054,1.0,0,1,0-1
34.0,161.45788425381903,67.92533724919649,13.475168559143661,36.0,14.0,0.0,4.5231318656516635,5.820706232871192,6.495740609256948,1.0500094687956114,1.4344321166097918,2.0035658244653853,1.0,0,1,0-1
34.0,84.15365049103644,139.34056386413718,20.66927813192611,23.0,34.0,0.0,3.9838957990163615,0.8760198255247449,1.320365881758524,0.5849375865492213,0.4572237187411596,1.9112426522612227,1.0,0,1,0-1
34.0,49.90845825129412,239.38829159475833,19.582453338957592,15.0,34.0,0.0,1.6377044732905894,5.3966578887356205,6.949820937087782,0.7292596668899145,0.7337883529587327,2.011281483588787,1.0,0,1,0-1
33.0,46.1431240256892,281.80204330724223,16.771011625867242,25.0,33.0,0.0,3.854248738823832,0.6867141367133247,3.7654440927348607,0.8784306900454675,0.4518147761786885,1.46203913363489,1.0,0,1,0-1
32.0,29.33607860453039,48.81464943469125,16.891930701342293,6.0,9.0,0.0,2.822437372377868,2.007476475304357,3.2785897816698446,0.9381441715516868,1.0508394789134605,2.0479056740899892,1.0,0,1,0-1
32.0,42.81424193051071,96.24990368084828,19.332791276455886,11.0,32.0,0.0,3.6388870812804988,4.337423876434911,2.8629595670257646,1.198988815420902,0.6160120242448459,1.7455166882535735,1.0,0,1,0-1
32.0,42.79789345260161,165.18144953287546,14.009787983215398,13.0,27.0,0.0,4.96315370126139,4.917321536395227,7.115384861836659,0.9708543517419538,0.5593570552489843,1.592720015846054,1.0,0,1,0-1
32.0,26.306904555025557,64.25114726318762,30.275871278595478,7.0,8.0,1.0,1.0998317910286861,2.1651668463285945,0.9206789822294817,0.9366507035433228,0.8861351561858386,0.9416506519903871,1.0,0,1,0-1
32.0,47.94103027011987,89.56954173220186,15.117247240828664,12.0,5.0,0.0,0.7670757697013015,2.643348844692913,0.664702362136764,0.9901214836617548,1.171524922944694,1.867895921909021,1.0,0,1,0-1
32.0,28.107410993906257,35.93688428963675,15.588571549281454,7.0,3.0,0.0,3.131051159715882,2.4130446363944813,4.845115087093518,0.8317667946849157,0.9369073748209097,1.2953289161444215,1.0,0,1,0-1
31.0,62.714961712338805,616.3739150490395,14.487775288278785,31.0,31.0,0.0,2.4377763879567156,2.9109649533870536,1.6844269476231049,0.589246031710034,0.5405642502625281,1.3088592732871063,1.0,0,1,0-1
31.0,46.67745087047327,35.55235372742248,13.273241957212408,14.0,3.0,0.0,0.7285556306599874,4.9259987078662,1.6296465090016123,1.2431236720019134,1.4507214531367743,1.581812559470417,1.0,0,1,0-1
31.0,62.90521297365111,1110.1363035625468,13.60706855112043,20.0,31.0,0.0,1.4115831395242284,1.571699277370741,3.242603178551631,0.38581063709795355,0.2549452407706258,1.531098243558223,1.0,0,1,0-1
31.0,71.80007057422446,103.27490883522233,15.128869883556689,28.0,30.0,0.0,3.859224264506906,5.209558836420302,2.4937042877545754,0.6657387033853558,0.6024116966679387,1.7371855211147953,1.0,0,1,0-1
30.0,128.75351811269542,396.41738181817624,22.734715653201746,30.0,30.0,0.0,0.48389909217668986,2.4150854448855847,3.052729710969074,0.7758847459374052,0.6511977481842225,2.120595324496274,1.0,0,1,0-1
30.0,39.451781387318896,166.8425719013774,20.431392497638956,10.0,30.0,2.0,2.5103620648011082,1.14950155653403,4.20807001285887,1.0168561777724499,0.3072086737064409,1.733291295899522,1.0,0,1,0-1
30.0,44.109405256858054,155.23486146688137,13.236095252955241,28.0,28.0,0.0,4.567290346181164,4.80001469394151,2.9766029444422295,0.8641930187285854,0.7858547034855515,2.4017735681517647,1.0,0,1,0-1
30.0,35.60843042394817,114.2399915939373,12.003064042996256,13.0,30.0,0.0,2.515090184578784,3.0592675271997534,1.3941160561096708,0.9640083879527068,0.44271570987919573,1.6840149633797385,1.0,0,1,0-1
30.0,47.610018809350535,128.9087433388373,19.745683705827734,28.0,30.0,0.0,5.251572341871248,6.965334020580705,3.7040763141099893,0.9606367144250704,0.8438695980994871,1.4458841533383902,1.0,0,1,0-1
29.0,51.2803743560022,128.60111422303353,16.199463535011887,19.0,16.0,0.0,1.5631259978295748,0.8342143604474869,3.6756663058760997,0.9991912517940831,0.7475392803224412,1.1229842093963973,1.0,0,1,0-1
29.0,98.50877413910625,257.02603130299167,15.14096751855369,29.0,28.0,0.0,4.148140086282628,3.318110674969987,4.065638393239872,0.6495860322043465,0.6731111466255829,1.7824025760858728,1.0,0,1,0-1
29.0,35.40615786136768,95.39786409836096,21.493689135190102,15.0,22.0,0.0,2.0552452729609874,3.0263645943195425,2.1810354729310513,0.6792077262237761,0.6831205568997092,1.7650106142904658,1.0,0,1,0-1
29.0,35.85245204765826,126.74262376685014,20.518188736429735,18.0,28.0,0.0,3.34668272871209,1.9572371020144252,1.6548769545612108,1.4611301341327092,0.4413184258131216,1.913099284012571,1.0,0,1,0-1
29.0,50.25182376840737,132.48829035453366,10.861486001385828,29.0,29.0,0.0,4.64852361474548,3.6578093999288304,5.53328577721245,0.8290178801173488,0.3853598014975785,1.157243491796896,1.0,0,1,0-1
29.0,28.24297108481794,235.88456774010842,21.206225861632223,10.0,29.0,0.0,1.6790345063358356,1.1827841826259595,3.0962251481883523,1.1219802203523834,0.5826948688472284,1.9804265108569767,1.0,0,1,0-1
29.0,49.30381148859449,58.54196883581221,22.742052528076155,14.0,4.0,1.0,3.907887623159471,3.898199690207866,4.938947867305886,0.9378523408124648,0.9685791188623774,1.6612604574641443,1.0,0,1,0-1
29.0,31.449854670927348,38.518356576501496,16.797662366598768,17.0,3.0,0.0,1.7888466545306096,7.643464840011902,2.3416158505353932,1.1166863808878875,1.752416247606915,1.6604499201383784,1.0,0,1,0-1
29.0,42.10743035539099,89.51256054572185,15.312008805162847,7.0,4.0,0.0,4.600977999661834,3.5704115292661824,5.6637747185623954,0.9917206193281317,0.740319936092539,1.2247353505899858,1.0,0,1,0-1
28.0,56.5213296506412,100.79132137134295,14.891120758715427,13.0,11.0,0.0,2.5191819284172996,1.8779709147071895,2.9946365073334116,1.0664233419136022,1.1399285271255912,1.5458858152759738,1.0,0,1,0-1
28.0,31.566385091914107,70.41796772841354,19.07862228485275,10.0,11.0,0.0,6.654935871955514,4.83814510407723,4.721852012311863,0.817283830741368,0.9267391627760769,1.935864354875616,1.0,0,1,0-1
28.0,34.311182017151594,195.43329762590858,14.963342534766849,6.0,12.0,0.0,2.4092793920093403,1.8826987533708883,3.0675367367870403,0.7787823584390696,0.3671698878689587,1.027950304217936,1.0,0,1,0-1
28.0,31.02629136575442,127.07080956265685,18.312782229177895,9.0,16.0,0.0,1.9863935709061393,1.5054214189575899,2.2451668986992406,1.1197694146286608,0.7750864466649805,1.6700856140060916,1.0,0,1,0-1
28.0,32.014897867038385,83.98224053165114,13.666624129967941,22.0,17.0,0.0,2.3363543412588057,1.3330548670997706,1.9497090402863118,0.7247664190168364,0.6233121116005388,1.782852766391232,1.0,0,1,0-1
27.0,62.21435664799047,485.83892899158064,20.050356707897237,11.0,9.0,0.0,6.8730096382577885,4.591613502943306,3.416650567644922,0.8812151754130454,0.9285957190285509,1.3360585588795009,1.0,0,1,0-1
27.0,56.81011391534825,147.40593511609808,17.854687814386978,19.0,10.0,0.0,3.0282411412255055,1.5157950640753552,4.434383728621818,0.3827465545129364,0.3827952483096105,1.253129329971343,1.0,0,1,0-1
27.0,36.98567189328694,158.18393684632053,26.246841379566295,18.0,26.0,1.0,4.47560437126289,5.412138322807849,4.41978571406239,1.16049413404694,0.7088683531763975,1.6570402722575075,1.0,0,1,0-1
27.0,35.04628719372792,51.51843386268793,12.728314584522234,12.0,13.0,0.0,6.823348823170924,4.212832383201544,5.5638600521106945,1.0923465088447584,0.9313823723925838,1.8873917321463456,1.0,0,1,0-1
27.0,53.25597910148023,644.7103951270407,11.35880134971062,17.0,27.0,0.0,3.007147425994766,0.9896685871918243,1.6774688550054537,1.239267638922145,0.146291155207902,1.9683589139384965,1.0,0,1,0-1
26.0,28.070234310267395,104.38994750256761,11.011932684304297,9.0,26.0,0.0,1.5250471507669816,1.9346567154592573,3.4804485051231038,1.0960263464209863,0.6513528590327611,1.4650930679422,1.0,0,1,0-1
26.0,90.95681633611686,311.8255255312576,19.914008889218383,15.0,16.0,0.0,2.1116912701739783,1.8251338978273572,1.0568363556753544,0.7743571605820131,0.4814258238758345,1.5192147857742044,1.0,0,1,0-1
26.0,24.375581926562855,52.32048430438521,8.022936331974638,12.0,9.0,0.0,4.902023763516021,3.3498491652381457,6.831434888175857,1.1822815150947594,1.151378336501999,1.5595075200347501,1.0,0,1,0-1
26.0,42.20235874303138,274.4015216895699,12.863336893135415,8.0,26.0,0.0,0.9924858923850396,1.3554153188794087,1.6772517999632943,0.862037636560901,0.2229020404429677,1.316624559203461,1.0,0,1,0-1
26.0,73.76873661340464,104.87178243864616,14.143874483656248,26.0,26.0,0.0,4.744472210364921,7.055118314632429,7.748340688371201,1.2482326173480882,1.2090802457391128,1.716375101589474,1.0,0,1,0-1
26.0,30.93168039231502,78.5397415568568,12.040218458596895,8.0,17.0,0.0,2.279779432726839,2.962426909301151,1.2693855328804897,1.1744210437908145,0.9669324013854578,0.9225437714527018,1.0,0,1,0-1
26.0,44.612649718194916,274.4436384795105,16.629988934433406,16.0,26.0,0.0,1.365762142131504,2.6302808777864213,3.6351930436051174,0.5426401808884922,0.3428745264967081,1.3761732951891013,1.0,0,1,0-1
26.0,53.035784140832625,139.44033090871474,9.51393138977247,26.0,26.0,0.0,4.493246508161764,3.817922374867639,2.5847817834195657,0.7741617117141706,0.6603858433823273,1.0287114351130884,1.0,0,1,0-1
26.0,53.29972387307527,272.5084573163596,14.785532382790398,22.0,25.0,0.0,4.245538965082722,3.9109710973940914,2.6082849281533504,0.7596119262091153,0.5697617634525224,1.5679131524992453,1.0,0,1,0-1
26.0,47.97294814636395,365.37076924994886,17.458846662980765,18.0,26.0,1.0,4.0126394364375315,3.5728118564985105,3.7028701124033083,0.7779297835630169,0.23947828187191444,1.5920911529690027,1.0,0,1,0-1
25.0,38.762207074527424,76.15430609459662,12.987955203908419,16.0,10.0,0.0,7.216087513419232,4.508086938774576,5.589631086713105,1.110576779137054,1.1022182820665885,1.0235200429683622,1.0,0,1,0-1
25.0,46.83825372673613,209.4058219635527,12.890964345019682,17.0,24.0,0.0,3.724556947126897,6.232735654419758,5.880208784149643,1.140118681790332,0.49982618590360667,1.345143331095296,1.0,0,1,0-1
25.0,36.506251469188086,75.10139530795387,10.767577489200827,10.0,3.0,0.0,0.8534720844548284,2.406715352361684,0.47309747150419157,0.816802429759895,1.0509058460747969,1.3099793101766788,1.0,0,1,0-1
25.0,40.9194064705473,549.0669246820813,30.151506150632216,17.0,25.0,1.0,1.2228543039452604,0.5544933234544214,1.9569151553556585,1.021470871128348,0.18031221240624176,1.6477346858060913,1.0,0,1,0-1
25.0,49.042455085835456,184.114333152213,14.247213374423175,20.0,15.0,0.0,0.6027510037333315,2.808599576303937,3.364521443814736,1.040625399671782,0.9916610304279753,0.6624592862765963,1.0,0,1,0-1
25.0,31.234443858790314,112.01359654540107,10.823452845843532,6.0,4.0,0.0,0.9540977687196359,0.8021106605536787,2.7434269533629476,0.7100691050603173,0.7464330043684451,1.3110793174503519,1.0,0,1,0-1
25.0,38.10855275079789,104.0467691339797,22.589832655100842,16.0,16.0,1.0,2.323040434352304,3.123283215737388,2.1309367712436615,1.0083770451116332,0.6896891044162847,1.9927263979546628,1.0,0,1,0-1
25.0,33.01260487486374,221.93633278332746,27.422301228743915,6.0,25.0,1.0,1.53674774325367,1.5339818330189419,4.140591692353873,0.7385789714991425,0.3040509558185063,2.2237047615799623,1.0,0,1,0-1
25.0,46.401453180833194,347.42466850039074,14.41103653786342,17.0,3.0,0.0,1.8247827184872474,4.039560892148869,7.914976567104163,0.43097210803475006,0.604643442161623,1.5030063581598623,1.0,0,1,0-1
25.0,38.27617518854259,323.1316573313651,14.892170872083389,11.0,5.0,0.0,2.8555785419349378,4.612590912510077,3.6148794305220107,1.1481702012488808,1.419519984304597,1.6834877793694856,1.0,0,1,0-1
25.0,26.367584474926236,40.59366323256811,13.37143168065482,9.0,8.0,0.0,4.4544450786939285,1.8078899907797354,3.017009505643918,1.1200020481054715,1.0584408632573492,1.0688900785901236,1.0,0,1,0-1
24.0,36.204602937594366,64.26623889847555,16.202086727140376,20.0,8.0,0.0,2.366629131156373,0.2598782291764515,4.226442608517996,0.8852859176268504,1.1422309706259715,1.6370872070249254,1.0,0,1,0-1
24.0,76.13464623851904,112.1991877382632,22.798214925783135,24.0,15.0,0.0,1.6056330532859082,0.8068349000331344,2.1797908176367575,1.0962210822533394,1.2043187827247221,1.6723146573828453,1.0,0,1,0-1
24.0,23.75571851991493,101.19021647487705,16.551688071153464,7.0,24.0,0.0,4.552217125956573,0.9476176097856416,1.9977465780015466,1.0206572722663325,0.4212376085587166,1.355221447183802,1.0,0,1,0-1
24.0,26.38683773067606,798.7456217356578,21.139774023159593,7.0,24.0,0.0,4.360447419313767,4.876330346936566,7.76570924006051,0.8937175545512882,0.3458613606469763,1.843439794635384,1.0,0,1,0-1
24.0,38.85705155723215,270.03939087891945,11.32399279525681,13.0,24.0,0.0,0.8926764038000565,1.811506467890294,3.115931853684687,0.8784857701979792,0.30286210994420415,1.304236661040162,1.0,0,1,0-1
24.0,27.397231179322578,51.631929333404905,11.624940114481555,7.0,14.0,0.0,0.581367540508434,3.533439193659364,2.75259092602864,0.9916885733736573,0.81235041669882,1.5504471141767857,1.0,0,1,0-1
24.0,31.34334731108164,45.64378841120692,14.20026391644848,9.0,4.0,0.0,1.1723566473557974,0.36338100392759803,2.9358715961405233,0.9961364705768169,0.9410276009692023,1.717061980751699,1.0,0,1,0-1
24.0,31.62594427745481,69.63704181021302,15.937544186933716,13.0,9.0,0.0,1.9246968953894334,2.7543276958004475,3.8250300382978493,1.0550946780089592,1.5856443050369935,1.6112913671578273,1.0,0,1,0-1
23.0,35.112206391584145,60.37783984990668,19.37305307356498,14.0,5.0,0.0,1.9965112936423086,3.4821264308940227,4.889258610686539,0.8477047069089828,1.074038306172572,1.4335538887621482,1.0,0,1,0-1
23.0,47.77228635572135,75.82021175256843,16.826431628540277,24.0,6.0,0.0,5.282943798110592,1.896841585785727,3.5095962635569173,1.073646426566008,0.8364264917211646,1.6759692599370428,1.0,0,1,0-1
23.0,26.349745592738316,53.08240633139745,11.3294739789319,10.0,3.0,0.0,2.8698096418052916,1.4892379877552895,1.9972464186779821,1.032773002345003,1.2504434641989906,1.8236343409169269,1.0,0,1,0-1
23.0,26.993357559983046,100.05961270147195,30.06083463054158,6.0,20.0,2.0,5.561759506757959,2.9332596169615197,5.043464932734493,1.1376918633812296,0.5726843864963008,1.8328431863925538,1.0,0,1,0-1
23.0,28.110684820794983,80.32999405471163,16.197697683849924,4.0,19.0,0.0,2.240729406322901,1.7706605020437831,5.090367413488342,0.8019940280636579,0.49999019461468047,1.9698628489646879,1.0,0,1,0-1
23.0,86.12556965804204,428.55637349845966,14.828968122718551,21.0,22.0,0.0,6.076050491095583,3.3634073497656636,4.880515828380651,0.8450421767091812,0.7860243272589974,1.3143547454371203,1.0,0,1,0-1
23.0,29.082335119504297,41.37529240730026,15.522131993705692,6.0,5.0,0.0,3.9391290233329967,5.6474342630384164,4.351230969291472,1.4220081057185863,1.3408414219431757,1.4879160745148652,1.0,0,1,0-1
23.0,28.510653158257746,293.06270719329655,12.339528004443087,5.0,23.0,0.0,3.718572321205012,2.234898888009201,4.752132022625457,0.8708825460978334,0.3357204634106678,1.4891610443063088,1.0,0,1,0-1
23.0,33.96589846730747,274.89234715740673,30.13304657581666,15.0,23.0,1.0,1.579040238226649,2.291095430619384,4.081059746986809,0.9930093243485643,0.6251925123410188,1.1757715862811886,1.0,0,1,0-1
23.0,38.834534327291585,457.47725106369285,15.990284862980623,14.0,23.0,0.0,1.4631434058661978,0.5419001286123267,0.8924062385729381,0.8958740035770858,0.6322315262917981,1.3113565894896622,1.0,0,1,0-1
23.0,60.05139126864621,58.74436727983347,11.402665747786044,11.0,13.0,0.0,3.3027152850056107,3.968519613816792,4.148149610836158,1.0434448705892958,0.8412145255355135,1.5259618086104791,1.0,0,1,0-1
22.0,40.48525393121086,218.40007148583726,12.095197872248262,12.0,22.0,0.0,1.5522229030001422,1.5523362387287503,3.9285807827050303,1.1040882549285003,0.37924586454960313,1.5442771415352239,1.0,0,1,0-1
22.0,29.781981918722526,59.90570331202795,7.488162224285699,8.0,9.0,0.0,3.697846018666023,1.749301218378296,1.1837944610584927,1.1049029290825483,0.8171076908053073,1.1639601597743001,1.0,0,1,0-1
22.0,25.656541542071324,70.69624115649164,15.92105213691519,9.0,15.0,0.0,0.9455505191674332,0.5822512218728347,1.2448842703347152,0.6875113819771032,0.41432675302333777,1.1518387521753637,1.0,0,1,0-1
22.0,67.74840976121689,83.44574997581293,16.75036491016571,12.0,13.0,0.0,3.560370701584443,3.0488366222208407,1.282882081788908,1.0151823814989653,1.1217179667412989,1.2404843970092512,1.0,0,1,0-1
21.0,35.122155124368916,73.26473246092148,6.2607351985527,14.0,4.0,0.0,1.5693871608816075,0.7056149926180657,4.456465604830606,0.759721598182724,1.0951374259795599,0.7495898282884971,1.0,0,1,0-1
21.0,47.81483565058702,121.45915324680495,26.34862506793774,15.0,21.0,2.0,0.5027647450666672,0.8466925280558337,5.458564577530284,0.7490864290517828,0.3587290769946808,1.8640611023584877,1.0,0,1,0-1
21.0,26.745952589640503,345.0789045165432,14.864121318337334,9.0,21.0,0.0,5.182938342516528,5.126645271624412,3.6372625619424537,0.9826986045160641,0.2726051682406282,1.267864985310706,1.0,0,1,0-1
21.0,31.291091273331528,69.81913234113986,14.417186376754229,8.0,19.0,0.0,2.458138288685623,1.5042227544067033,2.7051933290431425,0.9421433342574035,0.8782339342163785,1.6602068739458677,1.0,0,1,0-1
21.0,36.331056956614404,83.50238279943176,9.524698932342712,8.0,5.0,0.0,1.3549967164293018,1.8320986375934005,4.600017025056454,0.7214511223443906,1.4319333286367757,0.752977914178274,1.0,0,1,0-1
21.0,43.65457271066032,92.2842864619281,20.15047296879723,10.0,5.0,0.0,2.263316164995746,1.9212406492926575,0.5284064537954245,0.7662592034229393,0.5418118420797249,1.956320366381259,1.0,0,1,0-1
21.0,38.2473246310463,524.5757753170753,14.691232386435072,12.0,21.0,0.0,2.820895519374064,1.0780863677244872,3.1184278200321986,0.749231181655338,0.17568957924102693,1.2425747249829413,1.0,0,1,0-1
21.0,27.084050231266442,135.84828041961998,16.847257168320372,4.0,6.0,0.0,2.038368943427637,1.629834203090447,3.1703690460260043,1.1226446398612793,0.6442901129029396,1.5809149197050822,1.0,0,1,0-1
21.0,32.259259813775834,486.554694528956,21.04367648138471,7.0,21.0,0.0,1.4184900331471675,2.80270089985195,1.391001008308352,0.8240646156709138,0.2612992560282378,1.3609553150476297,1.0,0,1,0-1
21.0,36.375455670384376,39.804100547803515,9.695949521736384,7.0,3.0,0.0,1.4069396928617846,2.5349146642059788,2.934210756840915,0.7066913774935322,1.5699497653918535,1.0807624558522568,1.0,0,1,0-1
21.0,32.126899625628745,247.6470910085092,11.978921611430657,10.0,9.0,0.0,2.4891505847852056,4.45105992700267,2.316429679911095,0.9268054097645335,0.779961069845199,1.3020613311520937,1.0,0,1,0-1
20.0,28.885734458876584,42.82052698838788,9.81709090148845,8.0,5.0,0.0,3.8842621219170783,4.554055349709218,3.8653950962508525,0.8767890297963976,1.2943099342825997,1.486842120423738,1.0,0,1,0-1
20.0,25.035791439168477,460.9446086802978,14.438980906448409,2.0,18.0,0.0,2.799164406197508,1.8334100444029955,1.1100034729474615,1.429226179331422,0.6407731876518452,0.9909894554826275,1.0,0,1,0-1
20.0,28.600883607764512,51.86162931280564,14.558006770910453,8.0,3.0,0.0,1.1333246492879956,2.3545882851337514,2.344539609686156,0.8928196886647057,0.9948078363205599,0.9398434994463459,1.0,0,1,0-1
20.0,24.44720421274496,34.22772614834915,14.716307712191135,6.0,3.0,0.0,0.523495748836409,1.6336053750949684,2.358504885216249,1.2293070189231883,1.1448471553922952,1.4651037880112994,1.0,0,1,0-1
20.0,30.329009457334354,120.43093615634591,15.215957082103655,8.0,7.0,0.0,0.8174014975920286,1.7175143448024754,2.9698712826998976,1.2511788355655666,0.7180599715023692,1.4923418328082938,1.0,0,1,0-1
20.0,29.931173324914905,121.01491474852766,14.11053816133191,8.0,20.0,0.0,0.5257724035202286,1.3763632093071878,0.9825473746009309,0.7902095544401029,0.7221241186644709,1.7000609534428652,1.0,0,1,0-1
20.0,47.16361528663245,406.32972475896287,13.165280636734112,14.0,16.0,0.0,0.7449832726581698,0.9778525317225422,1.374285953523603,0.6643479213486964,0.5863913400290206,0.8343138457278131,1.0,0,1,0-1
20.0,34.82642758208432,94.57192291284218,22.80227538912511,8.0,12.0,0.0,2.7020999654848294,1.475831084242018,1.5759215565891005,1.3221605177164921,1.0257498677459966,0.9588468762781598,1.0,0,1,0-1
20.0,78.5308915746892,198.95200434925619,16.36708002951175,20.0,11.0,0.0,1.2152896198597845,1.1884482196377497,1.2405118752011197,0.3998130228428191,0.64378569696179,1.4282889463170891,1.0,0,1,0-1
20.0,25.783486213070617,97.25481403762943,12.115766434630764,3.0,20.0,0.0,7.387299157655602,5.226831037385169,3.363268585391459,1.1576869557884266,0.34063093386894217,1.0313120026062428,1.0,0,1,0-1
20.0,195.5771947860208,438.06888593648154,15.280925137805646,21.0,18.0,0.0,5.038656713082538,6.169333974726433,4.42751244858271,0.8808573552612282,1.2513359512748858,1.4429703672382055,1.0,0,1,0-1
20.0,27.779885077067757,72.07236860239131,11.548098513110391,11.0,7.0,0.0,1.9030105308762075,1.7814143634336561,4.673684059131754,0.9800286861498325,0.7747483135689207,1.3719222572075003,1.0,0,1,0-1
20.0,62.161518006197745,162.88562183878977,12.942856041819272,14.0,10.0,0.0,2.295925255650247,1.605993884400164,1.3242642708614663,1.5408587757305985,1.1101475317664975,1.3940362932533437,1.0,0,1,0-1
20.0,51.84206613986152,530.4821751758132,16.439474246991036,16.0,20.0,0.0,2.6476906699526386,2.9562720593950074,1.9815750053410628,0.5587304856967024,0.2579804675402564,1.591563114872659,1.0,0,1,0-1
20.0,35.140410330469216,44.362382586866346,11.458318459933555,6.0,3.0,0.0,3.246211157688657,0.6453807058212138,1.98505286074026,0.7699313455904692,0.7342120940810034,0.9976113872681496,1.0,0,1,0-1
301.0,120.85309615043364,638.0723748836463,20.08838051369143,301.0,199.0,0.0,2.088666189483556,0.7225719070026804,2.08068126489116,0.3807709479291886,0.535217450438896,1.771731808121971,4.0,0,1,0-2
301.0,134.24126306829683,510.07954944394106,22.98033205297736,301.0,92.0,1.0,5.706358824618172,6.854074942317264,4.508788449230543,0.37996351406816775,0.6271808376522282,1.6330054604755688,4.0,0,1,0-2
301.0,133.66209955219676,481.0727603295063,40.7196234274288,301.0,266.0,1.0,14.581969995880897,15.044403878469309,12.821033481278816,0.276192820140693,0.4012408194687282,1.6179829137455162,4.0,0,1,0-2
301.0,234.6470801673308,309.21879451336906,24.39432403444979,301.0,143.0,1.0,5.97444818700649,6.004888117552841,7.8736274847623315,0.43770119391990536,0.7365051939858416,1.6527103834995793,4.0,0,1,0-2
301.0,150.00707587410912,53.289204628217746,25.391778017010278,301.0,5.0,1.0,5.749472170284152,5.429291386819406,6.072645996558931,0.23702796137831267,0.8671918677756626,1.6581521292081098,4.0,0,1,0-2
301.0,100.7561341169483,317.0270953011375,26.949636725062415,301.0,281.0,1.0,4.687571454475773,5.787241354995401,5.248033219595973,0.2681048726681585,0.3102431091184215,1.5404525341884998,4.0,0,1,0-2
301.0,84.45739525924336,169.295966159001,26.875450748263912,301.0,52.0,1.0,4.915467919154991,5.1841083050155286,4.915467919154991,0.45315467807364296,0.8084838277668104,1.8162717275315603,4.0,0,1,0-2
301.0,229.32989439819525,476.8089348993892,33.06329195087549,301.0,301.0,1.0,8.194057425059372,6.524134526005729,6.034240150855852,0.2538755268799928,0.47776067013623164,1.9589839331903438,4.0,0,1,0-2
301.0,199.60231622264962,471.20375250377526,30.46324558402301,301.0,301.0,1.0,4.165670788980921,3.460334584879658,4.165670788980921,0.22731785880452232,0.36329309830074075,1.372023330738203,4.0,0,1,0-2
301.0,201.26529644226792,201.45334205252482,19.57114325969753,301.0,122.0,0.0,4.396727444753752,4.730947693048437,4.206550189958031,0.2806887928667391,0.6879743305908391,1.3001304921536603,4.0,0,1,0-2
301.0,179.30211122959759,818.0098317622901,25.59228503480008,301.0,96.0,1.0,9.371484104782379,10.876078071160185,11.772391960463189,0.3753190144342264,0.6612402314208168,1.6443222558479087,4.0,0,1,0-2
301.0,182.84117373466032,251.1774814347711,20.544127477524682,301.0,301.0,0.0,7.726732063297849,7.103833553527795,7.726732063297849,0.23419636005016106,0.4330835988134259,1.5084718663849173,4.0,0,1,0-2
301.0,400.36852936822663,453.68011298610253,51.50384878586786,301.0,301.0,1.0,4.409574389803371,3.8941962700023196,4.409574389803371,0.30439068379293344,0.5476989759626454,1.4492462134031916,4.0,0,1,0-2
301.0,130.4662246548098,215.5545603373145,26.766227364300285,301.0,259.0,2.0,12.693932397931116,13.680744167328688,12.693932397931116,0.32662452325084684,0.42414092606085463,1.521566990692141,4.0,0,1,0-2
301.0,102.62977514575034,103.20531655442934,18.68258226797241,301.0,20.0,0.0,4.5698298819840195,5.73555096981962,4.5698298819840195,0.3148836059620553,0.7204309357677384,1.362021112483388,4.0,0,1,0-2
301.0,99.84611594461161,285.159130450368,21.76380976186732,301.0,67.0,0.0,5.533386438184191,5.374707329012049,5.449956316684358,0.3572307852264736,0.7044601020828408,1.5790447238819758,4.0,0,1,0-2
301.0,146.79688488240623,251.8099435563872,20.603672188507463,301.0,74.0,0.0,6.282674227302578,7.202745910430518,10.059381429876746,0.2934331709312626,0.599722648471234,1.9160808951888801,4.0,0,1,0-2
301.0,228.1695250159554,198.99808911505656,21.148183908380144,301.0,56.0,1.0,5.107409530190666,6.185119403830241,2.5199048307887284,0.20627568407929955,0.7600943052824243,1.3282359642800274,4.0,0,1,0-2
301.0,254.32074286341177,328.26759270322987,37.39809897004,301.0,72.0,2.0,5.741826396657612,6.695671997049815,7.041629386492534,0.25521991736386657,0.7192669669439721,1.534695215265415,4.0,0,1,0-2
301.0,187.1967708610964,337.8292374526077,19.261266299597736,301.0,127.0,0.0,0.8420668056580848,1.702072176607377,0.8420668056580848,0.28273159146914717,0.5355301884992428,1.7175744100040902,4.0,0,1,0-2
301.0,165.0671914938834,272.4774255314141,30.167815560059175,301.0,30.0,1.0,9.590361680664655,9.1881049405944,8.929943132002684,0.3753833780335331,0.8098756270538339,1.4216612628116496,4.0,0,1,0-2
301.0,196.248442923056,443.8493285215241,20.016562484923572,301.0,236.0,0.0,5.832850556150744,5.350627876899333,9.701605136750056,0.26554430963055015,0.4214061922819845,1.4652865390564411,4.0,0,1,0-2
301.0,209.2387031931711,370.10008531066643,22.915735924032695,301.0,301.0,0.0,2.5924271690908074,3.6925867744696843,2.5924271690908074,0.23756435884945631,0.3794833515409035,0.5212635858167775,4.0,0,1,0-2
301.0,187.12458086770664,213.3036623745931,26.6015246670876,301.0,161.0,1.0,6.757788947151728,6.103142329906606,7.470031716917686,0.23246221804621608,0.5890058706514012,1.2183944473723716,4.0,0,1,0-2
301.0,261.7813013999024,270.71298249746144,34.57756879939452,301.0,130.0,1.0,4.216460749457709,4.6033881248108335,7.41074209054319,0.2092102575324491,0.7055485457480238,1.2617420337203218,4.0,0,1,0-2
301.0,245.05584040959155,295.1104299424832,34.876198223359275,301.0,164.0,1.0,4.645490331834227,3.699691726996831,7.363019605337298,0.20809842432689207,0.606737697558836,1.6036345670755587,4.0,0,1,0-2
301.0,160.70303720080125,263.4426610851548,33.767285848199265,301.0,199.0,1.0,5.112040498690389,4.83701018240975,6.108407249419115,0.30165607552170104,0.5750315444542994,1.6409628190912822,4.0,0,1,0-2
301.0,158.9128634987851,781.2031317780802,54.27125389652885,301.0,155.0,2.0,8.662348340370038,8.604469478396565,8.037282483408482,0.26451876717912914,0.45750650600808646,1.3818119200104604,4.0,0,1,0-2
301.0,140.53971485613937,222.82715300185637,55.154836983923175,301.0,162.0,1.0,9.226039540185468,10.799754195990227,9.226039540185468,0.28018411877994825,0.5511729236608676,1.3116754471630891,4.0,0,1,0-2
301.0,117.23092940558735,141.04722028588125,24.741712086613784,301.0,41.0,1.0,11.89785077319369,12.767405491130544,10.86508614917971,0.3499293939032021,0.8722818550894477,1.5059780667558404,4.0,0,1,0-2
301.0,188.53094061349213,528.8632514752136,20.10058699407503,301.0,301.0,0.0,3.039632760334243,4.313831664849848,1.2309558344589921,0.360007908960551,0.4202352057981479,1.1672394855407686,4.0,0,1,0-2
301.0,278.3850583945034,373.7712751195839,18.96150494742738,301.0,254.0,0.0,6.501699964536378,6.918833213564961,6.501699964536378,0.27007813736113206,0.5772561329872435,1.9248139684136913,4.0,0,1,0-2
301.0,206.678136088646,330.70319073173016,18.103000636877695,301.0,301.0,0.0,5.250235592150542,5.457445048920242,5.04225079269573,0.3608209565154865,0.5021232541783098,1.134560377495994,4.0,0,1,0-2
301.0,286.8127836368298,501.1393731018053,19.330270960267327,301.0,301.0,0.0,2.343451213563402,3.112616245570777,2.343451213563402,0.39156311622045775,0.4739135474637944,1.557599356804264,4.0,0,1,0-2
301.0,165.08601631660616,195.90966981277867,17.186141839716086,301.0,102.0,0.0,4.68676537968076,5.249130714675571,4.68676537968076,0.2795710759403197,0.5760214446995304,1.5242979466247955,4.0,0,1,0-2
301.0,262.9272800274473,649.8597519668746,26.724550575963736,301.0,301.0,1.0,4.467788462842382,3.3436802580999214,3.514252970165994,0.359459840052422,0.4883636562544412,1.2717712760512025,4.0,0,1,0-2
301.0,218.71318917787528,771.0148284752665,36.87748867280529,301.0,289.0,1.0,4.750366848082332,4.637739980566424,0.8385761187213672,0.22285952628233094,0.4696916850830555,1.8072274857901265,4.0,0,1,0-2
301.0,115.33725364833766,429.16245704562664,31.059674184683843,301.0,126.0,2.0,0.6339952207759153,0.8234895360941662,3.8698726179262968,0.30558800779000667,0.4456319643006509,1.657829342376754,4.0,0,1,0-2
301.0,217.12095556443003,241.22246076235373,27.874282161301103,301.0,220.0,1.0,17.81570338025315,18.076849779948425,18.414966146430583,0.25746938477518966,0.4558164877576496,1.460023824880966,4.0,0,1,0-2
301.0,152.3566292048448,159.47315808044388,23.67995629172306,301.0,72.0,0.0,9.997380045360762,10.569221041528854,11.00292701318601,0.27882480720877284,0.6034304502552943,1.3229724197778439,4.0,0,1,0-2
301.0,244.97535504390316,248.06323749586505,23.129169747935403,301.0,285.0,0.0,5.894239533064027,6.662721112531631,5.894239533064027,0.23062296199400278,0.5809965483108962,1.6113814734225547,4.0,0,1,0-2
301.0,135.43039729072166,545.8997727331148,36.155578457646214,301.0,138.0,1.0,5.098277823595312,5.26308696945529,2.6581989542758424,0.34729682108944987,0.6760189452164105,1.421474536723357,4.0,0,1,0-2
301.0,123.35480225009944,271.9567069133184,20.016173502289952,301.0,207.0,0.0,3.7196895546471436,4.423607469503904,5.256791020852086,0.27771382202155753,0.6513883177680005,1.4512530957095866,4.0,0,1,0-2
301.0,148.17900131013207,204.33446979142064,27.399062246865967,301.0,55.0,1.0,6.861011998263479,7.303458447985906,4.923989609626694,0.3164573641041662,0.5869036150683569,1.2895004428547903,4.0,0,1,0-2
301.0,109.43874273437218,384.2135285537463,33.611060502112664,301.0,162.0,2.0,4.492627641871106,3.645816670105061,4.492627641871106,0.347498339714395,0.41756432882254957,1.634605140187481,4.0,0,1,0-2
301.0,134.06994706145232,333.5174894692058,30.721048237244347,301.0,111.0,1.0,5.046591175488028,4.981258900617437,7.452209843040263,0.34582918114586625,0.7745248353790314,1.9174978168128876,4.0,0,1,0-2
301.0,432.0143267434541,903.4913432223942,24.62513839961527,301.0,301.0,1.0,2.7502661977058565,3.5535540871432487,3.162736581440154,0.21659407518090423,0.34661979323752445,1.813866092416165,4.0,0,1,0-2
301.0,106.15608588951436,444.744524184928,21.37156311516962,301.0,289.0,0.0,7.430505048154368,7.04328766963969,3.3633325975532817,0.26580010915976204,0.2243880269628312,1.4260062412362209,4.0,0,1,0-2
301.0,155.45784701685952,220.5625819260695,23.077872155496323,301.0,301.0,0.0,4.392829874441607,5.28520924913002,4.392829874441607,0.25571417399237056,0.5031250918723709,0.9780073266016405,4.0,0,1,0-2
301.0,288.8231196890764,355.79716640464443,26.189452978675327,301.0,145.0,1.0,6.506798088912125,6.561815508763635,6.5223910426124725,0.21186653215169365,0.47592439119291186,1.5781647789030928,4.0,0,1,0-2
301.0,110.26490518589337,203.09002077739964,27.100656267940472,301.0,112.0,1.0,1.9099991502633094,1.3480224251467092,1.9099991502633094,0.4072851538260209,0.5633174046240463,1.8525593209943994,4.0,0,1,0-2
301.0,218.92025646220281,215.81175268443064,27.94748846098894,301.0,84.0,1.0,5.116654946498527,4.381965961524734,5.116654946498527,0.2926859964334759,0.7326338434332696,2.043732334229275,4.0,0,1,0-2
301.0,96.33847468284593,209.60026369661932,30.712267735310153,301.0,87.0,2.0,11.203148993709052,10.48880687301903,11.203148993709052,0.3139395748630102,0.5959672714664689,1.6262062968145856,4.0,0,1,0-2
301.0,167.7019288937599,824.35775610375,25.897551427072607,301.0,261.0,1.0,2.1496290519620924,2.7216677838447203,2.401924950351674,0.31659302121728816,0.3299470954042251,1.2160614704616524,4.0,0,1,0-2
301.0,175.0728089267572,427.19858507830605,33.323072705714,301.0,83.0,1.0,3.661229583506533,3.592035219546919,0.8517953960639213,0.2215545975525851,0.5935091382606749,1.3911464273010608,4.0,0,1,0-2
301.0,297.0251484084233,465.7631572388971,29.40525933903027,301.0,301.0,1.0,6.221065059932406,5.04422433673938,8.06892224232219,0.2487760148200894,0.5340222302172808,1.5341199562639651,4.0,0,1,0-2
301.0,107.65610041233198,242.36258888878407,33.31969489516455,301.0,162.0,1.0,4.5012209818903415,4.048711746536471,3.758497719715297,0.3722911708327109,0.45675763838391514,1.5148532845872031,4.0,0,1,0-2
301.0,184.74360489355217,444.4403102235554,26.273205631396593,301.0,301.0,1.0,2.9075768750182567,3.69240736420928,2.9075768750182567,0.2745414659300008,0.32239685435149984,1.0960754982229521,4.0,0,1,0-2
301.0,126.04548093677757,335.0153389606117,19.738443858490328,301.0,301.0,0.0,6.3040846124851955,6.023810628325195,6.3040846124851955,0.4215600812561614,0.4532804867718359,1.5743275091721516,4.0,0,1,0-2
301.0,275.76421237995885,435.62050111714206,31.777356682478906,301.0,200.0,1.0,4.799127376285578,5.159912391752809,10.65990935225229,0.29590877288384465,0.566405102870935,1.4677693107865748,4.0,0,1,0-2
301.0,168.37564441660518,192.47803341814918,28.327796155542902,301.0,107.0,1.0,5.82726893999461,5.768898490207121,4.535904994163159,0.323594014654544,0.7095971550380433,1.2771461855399817,4.0,0,1,0-2
301.0,103.90158491766903,498.8799843412538,35.78749528341978,301.0,163.0,1.0,8.137490772476488,7.437091341000235,8.622037961529333,0.2910319216038501,0.39861320884904444,1.3031728966767389,4.0,0,1,0-2
301.0,125.40746636457656,202.6233375862508,22.519464554758088,301.0,207.0,0.0,2.935477407376686,1.4941358603220642,2.7163160027965554,0.26719476494741473,0.5978798281015681,1.491312046350767,4.0,0,1,0-2
301.0,265.9943531602265,362.8328661742474,22.08900707119694,301.0,301.0,0.0,7.0776795787821,7.815739828909508,7.016013161503588,0.47794098562865334,0.5372142859504331,1.1255381512817975,4.0,0,1,0-2
301.0,86.07201862269852,825.3127992384708,23.96496613216575,301.0,64.0,0.0,10.58640221375908,10.58640221375908,10.58640221375908,0.42743313245886666,0.7558605884953596,1.693547757570841,4.0,0,1,0-2
301.0,200.3332211446499,268.11493422254546,20.25943803600874,301.0,146.0,0.0,4.693948632120841,5.046623632990325,4.693948632120841,0.3224178261669145,0.5895806764488419,1.4012440484047526,4.0,0,1,0-2
301.0,200.1648620499105,536.0637747969547,27.59764480615287,301.0,193.0,1.0,4.292922999401156,4.343567305236076,3.523421517506728,0.2528804436210812,0.4512671750561975,1.1507203830441146,4.0,0,1,0-2
301.0,176.4292002341361,252.3249654879264,28.856204838435133,301.0,178.0,1.0,4.002610968597792,5.019957251384417,7.519743894137554,0.23307515467013984,0.5332812956988463,1.621283742682583,4.0,0,1,0-2
301.0,288.38339191458493,351.3310568678394,21.046191718886035,301.0,238.0,0.0,2.6823459246128207,1.7803529564082752,2.6823459246128207,0.20114233366896075,0.43356288781339647,1.2790532048588643,4.0,0,1,0-2
301.0,266.4411837091772,412.19371160130413,21.097742276037245,301.0,301.0,0.0,4.957654010928474,4.942471852826827,4.957654010928474,0.24029307661815574,0.40633599708710977,1.2185526081023237,4.0,0,1,0-2
301.0,223.93631498214535,590.182611665976,26.029992401044932,301.0,241.0,1.0,7.920623822431244,11.378816066883426,9.204735229719311,0.241382138065291,0.44842055287978827,1.607618268078639,4.0,0,1,0-2
301.0,205.19606891136087,335.850638495611,28.695436010356488,301.0,178.0,1.0,1.7678528921583696,1.4856995894674865,1.6964962107501715,0.27318748441873647,0.5894796844573879,1.050031961514374,4.0,0,1,0-2
301.0,209.01760750559959,219.36320202523413,25.525386360562283,301.0,210.0,1.0,6.616841983382542,5.545917514815552,6.4093301657991955,0.2203221396118316,0.49406109512306357,1.1794722871949594,4.0,0,1,0-2
301.0,187.86477908003036,198.53998013144943,18.427909444544067,301.0,108.0,0.0,12.166223195234243,11.887781713813673,11.16188027841729,0.2389144238853333,0.6005530012244042,1.5276250424198894,4.0,0,1,0-2
301.0,111.43147563777907,308.56079892605123,33.70469555331018,301.0,42.0,2.0,3.6138960174002492,3.0897841385781533,3.6138960174002492,0.343908451864291,0.5460387895185105,1.5447000496584067,4.0,0,1,0-2
301.0,180.79983163303734,175.61711022597123,21.11174335209084,301.0,78.0,0.0,5.1144916737648805,5.379237340614189,5.1144916737648805,0.23392521281068004,0.6576849717269326,1.6024103765735955,4.0,0,1,0-2
301.0,143.5813006921495,212.4844365209361,24.7395534145399,301.0,146.0,0.0,2.6892802175393644,2.84246414390008,2.6892802175393644,0.3386465995128945,0.667502838105202,1.5532309458963773,4.0,0,1,0-2
301.0,113.79774169720797,188.41376735946903,21.553256875082187,301.0,112.0,0.0,4.1948994478157475,3.2826098574975715,6.328260195805646,0.3223759982589636,0.6415847224458514,0.9497768198489163,4.0,0,1,0-2
301.0,116.17715999580467,326.09289637065547,29.920150195837106,301.0,229.0,1.0,5.337451970958917,5.174019771936934,5.337451970958917,0.29722680436855453,0.45873515316184676,1.5719637873657752,4.0,0,1,0-2
301.0,358.84503660646953,711.9446158823988,25.40211810919483,301.0,245.0,1.0,6.225641244039858,5.034742954151958,8.440662618938882,0.2558944074713893,0.4856084163496611,1.560841552137336,4.0,0,1,0-2
301.0,161.42624867652177,442.42094920776526,18.525363399341852,301.0,301.0,0.0,19.5979530711195,20.05612883751996,19.99060514681982,0.2947623172608629,0.32115345654935434,1.6380806681492424,4.0,0,1,0-2
301.0,195.85151696418401,259.1630275046532,17.88540945700834,301.0,301.0,0.0,1.9493887672670758,1.8598573377532739,1.9493887672670758,0.2901093109406401,0.5280142901907406,1.171118389794594,4.0,0,1,0-2
301.0,120.2577883072623,285.6601609521918,19.60448970434003,301.0,68.0,0.0,4.404378238963986,7.5766621224253425,4.404378238963986,0.36744088553346005,0.8627048071515656,1.7531940022268107,4.0,0,1,0-2
301.0,330.7141736917657,348.33554262474223,22.05950536094357,301.0,134.0,0.0,5.774347846640535,4.244168605765096,5.857773587354608,0.18539293379133584,0.4856033306620299,1.9293024388700124,4.0,0,1,0-2
301.0,183.9312721124398,229.000047646854,22.853584242301288,301.0,145.0,1.0,2.911413778470924,2.9960317203425357,2.911413778470924,0.3097621401870342,0.6429770604687288,1.6228995873526977,4.0,0,1,0-2
301.0,198.06717943149832,704.9707864501906,19.683497443867804,301.0,248.0,0.0,4.828130313265309,3.228968528865408,4.828130313265309,0.27563151448850964,0.5375556104391592,1.4428557220794782,4.0,0,1,0-2
301.0,148.26804764417517,282.1062083459419,17.278648342546543,301.0,301.0,0.0,6.219597280844367,6.347534253678592,4.71881540744168,0.28096005384887124,0.4233328476090102,1.3588380319414273,4.0,0,1,0-2
301.0,142.25479856663452,289.2033074057967,20.264108612533395,301.0,275.0,0.0,4.514992617599078,3.91377175130609,3.568243618258415,0.3560690501078874,0.4855372490535558,1.0805048309997762,4.0,0,1,0-2
301.0,292.8802574021122,477.353604848627,20.82168282882445,301.0,301.0,0.0,4.582690919085961,4.690305156242171,4.958697924792588,0.20782013756632922,0.3038580179841524,1.756842813835584,4.0,0,1,0-2
301.0,211.72345035945614,596.865023915811,27.54974915179135,301.0,205.0,1.0,5.584463152984369,5.958805666387244,5.584463152984369,0.22443833494840276,0.35746707260354943,1.613591592405633,4.0,0,1,0-2
301.0,159.56750973186416,342.9211912033655,23.512220162178807,301.0,86.0,0.0,6.018380331256368,5.332851184246169,6.018380331256368,0.2983105107359373,0.6208077437930414,1.3367207400945673,4.0,0,1,0-2
301.0,162.40150618610002,412.32498694767474,23.020553470413944,301.0,119.0,0.0,7.218731566194409,7.439636288695107,8.99171589768707,0.37948638914674493,0.47062341205621444,1.696153534763079,4.0,0,1,0-2
301.0,134.4187800375561,343.051580516379,27.689772478463304,299.0,73.0,2.0,6.755053824077519,6.973197662626528,3.589369799235536,0.2503171199273018,0.5092245357286045,1.5199861992138566,4.0,0,1,0-2
301.0,77.7408427972323,225.07063942603583,24.467443298492665,296.0,92.0,1.0,9.907862670798668,9.855125152461998,8.078374784536988,0.3685181261255523,0.5882580058504756,1.4034107674337581,4.0,0,1,0-2
301.0,126.46997200876984,243.35972548060053,35.04879322042722,301.0,154.0,2.0,1.4098784365409225,2.1920581965224506,1.9733880871406528,0.2956018061624563,0.6980327918290289,1.3908254046073323,4.0,0,1,0-2
301.0,131.68598753686473,238.65785086892703,24.6625499647513,274.0,52.0,1.0,13.796003248179018,13.235546684266257,13.659382383059947,0.3763804772286965,0.7183363979680927,1.8678239105012198,4.0,0,1,0-2
301.0,81.40992982049477,151.23553248565446,22.468523591877723,252.0,43.0,1.0,2.9182214469542576,2.2335706134511275,2.9182214469542576,0.42399292415861856,0.6530551769382913,1.6297542163521768,4.0,0,1,0-2
301.0,57.16652558059941,244.58460676678175,22.910403765215406,227.0,119.0,1.0,1.8265236576532022,1.5856368895612647,0.8924615639378028,0.4539660837127498,0.7322100050507487,1.5365223446156577,4.0,0,1,0-2
301.0,118.5794135941408,470.2117608924165,23.583059997775177,208.0,138.0,1.0,3.8688414240216087,4.35049482387377,3.181417856107848,0.39967876386360607,0.4547829884185262,1.5548703378912785,4.0,0,1,0-2
301.0,88.7226260812589,358.93922603483236,40.04305442994174,301.0,61.0,1.0,7.927612437680376,8.448498056677508,8.956321898349717,0.372882053288699,0.6381414565161143,1.647744449384562,4.0,0,1,0-2
301.0,120.89365448964627,263.50456399638614,22.19390580813515,187.0,79.0,0.0,5.552182972185347,5.78027460933738,3.290122514153545,0.4564282889449924,0.785020508014665,1.6503996826253309,4.0,0,1,0-2
301.0,80.33889687008103,235.4949505138113,30.505128767814398,156.0,231.0,1.0,3.8180505867970593,4.439856949583817,3.8180505867970593,0.6437950615406938,0.4889405763361276,1.1770397156356027,4.0,0,1,0-2
301.0,198.30429971488098,447.16635049761015,31.63618414605112,301.0,114.0,1.0,5.650288504538416,5.016633637061472,8.330114665936673,0.27862722356063796,0.682207918754645,1.4874372728396286,4.0,0,1,0-2
301.0,93.50549857351156,117.40401166589882,32.292172199494956,210.0,17.0,1.0,2.3119358032358046,4.949143448392156,2.2617522821404217,0.4068984105199373,0.9668930361332785,1.2488991665493123,4.0,0,1,0-2
301.0,89.95503329926032,315.98231197983927,44.192365519576356,222.0,94.0,2.0,5.936397219514834,5.376500660201117,5.936397219514834,0.5340593699708543,0.847542911184549,1.1685704464912414,4.0,0,1,0-2
301.0,223.57261120737928,466.161965728038,32.18222499052017,301.0,139.0,1.0,5.090655096672043,5.474354512894462,2.6913168820398443,0.27038998862200636,0.445057612818289,1.5351262279207565,4.0,0,1,0-2
301.0,70.69221641608132,148.67170773523767,23.0360038413758,188.0,24.0,0.0,6.721392834759822,7.724065305658405,6.721392834759822,0.5135781432229584,1.1310226815807758,1.622270152159568,4.0,0,1,0-2
301.0,235.00013010143826,281.0485557805201,22.12244681471623,301.0,112.0,0.0,6.5486270017001855,6.50948876991571,9.281292720640788,0.2588667805889276,0.4919620004705259,1.3710548538143577,4.0,0,1,0-2
301.0,150.73162099474644,369.73406889434983,25.56495392424214,257.0,170.0,1.0,1.419535699733147,2.1522622688938213,1.419535699733147,0.3660944110582757,0.6148903398151475,1.8062579381985726,4.0,0,1,0-2
301.0,200.18983447972562,178.64218048560392,34.89209964087775,275.0,51.0,1.0,1.3023745731525884,2.5554713203771384,1.3023745731525884,0.33544342489438483,0.8824379218380879,1.623962513442155,4.0,0,1,0-2
301.0,59.802131982951956,91.68352683322502,25.39050046747984,118.0,9.0,1.0,5.617697599899004,5.480646658553243,5.617697599899004,0.5630045609665457,1.0778583335782723,1.5177336771839869,4.0,0,1,0-2
301.0,65.54097306867696,264.2066295772591,34.2637245814239,256.0,54.0,1.0,12.210409168441235,11.219144016238827,12.210409168441235,0.42287085016594095,0.7715711279741587,1.2027030035561361,4.0,0,1,0-2
301.0,94.27092848938386,95.33603627221197,20.946596615188767,284.0,35.0,0.0,0.668887699761393,0.6599692975995186,1.1296380046997674,0.41195428591365524,0.9666124293078288,1.769915916426811,4.0,0,1,0-2
301.0,152.16232221891147,696.5580683285438,19.458305138711033,257.0,91.0,0.0,2.8005970866152694,0.3078660025937077,2.8005970866152694,0.3079066882234675,0.6540573647385375,1.5170957696493728,4.0,0,1,0-2
301.0,133.05794540699495,253.1326831849214,24.852281154190717,262.0,78.0,1.0,1.0356021585427,1.0926747631420186,1.0356021585427,0.434965672037766,0.8448217155213595,1.7859197256978836,4.0,0,1,0-2
301.0,115.71679466419319,173.92239835038927,28.10190568465679,197.0,63.0,1.0,6.5597346989811935,6.8046212178467655,6.5597346989811935,0.38366727840470605,0.4712165342228543,1.129272672202637,4.0,0,1,0-2
301.0,223.88900508527524,289.5572906569089,19.055448038447558,293.0,229.0,0.0,5.359077627834747,5.822234572425888,6.017257987531433,0.34906854152210426,0.4967877084762211,1.5006425110827144,4.0,0,1,0-2
301.0,83.78479565534464,129.15454338652935,33.119974525239996,294.0,128.0,1.0,9.2919250520404,10.011785738971275,10.926423547916885,0.3937171605859209,0.6114902417982736,1.3964031147493965,4.0,0,1,0-2
301.0,119.04596690917744,174.75109096116276,30.057125818180314,248.0,70.0,2.0,4.9229562932784265,5.760573317001652,7.628369260428729,0.34619815110354635,0.6164811273381943,1.3527004395453937,4.0,0,1,0-2
301.0,77.5365288086132,140.5042344320564,36.316740585327324,84.0,40.0,1.0,4.825679940890533,5.5383730896342405,4.825679940890533,0.4947822557866171,0.4263151972066755,1.2028676363936917,4.0,0,1,0-2
301.0,237.9089569288538,459.286901938717,18.18634824902575,301.0,296.0,0.0,9.007087655873319,9.291567272237247,10.762995461099356,0.4057903729183975,0.505961990221165,1.1862601146078726,4.0,0,1,0-2
301.0,119.78126502962006,233.3942817935212,17.6980850644282,203.0,73.0,0.0,5.865661487929519,6.874300301543993,6.140678562740606,0.3866351964266833,0.5324793946305055,1.594301417450743,4.0,0,1,0-2
301.0,57.796547261722736,575.6660832790596,18.766341411979308,166.0,118.0,0.0,10.182878426599386,9.943610532596313,10.182878426599386,0.5157564142815408,0.4173665078750777,1.6496258575623732,4.0,0,1,0-2
301.0,161.62079256730985,156.93319217518723,26.363846627481397,298.0,88.0,1.0,7.901162248924935,6.742614766829565,7.901162248924935,0.2837061315350683,0.5642633184967355,1.33510320790683,4.0,0,1,0-2
301.0,90.94060260036328,246.28901078076942,18.37153003373188,298.0,143.0,0.0,6.218429210200754,6.621517308831113,6.218429210200754,0.6080605851791909,0.5716595144814725,1.2879515051255945,4.0,0,1,0-2
301.0,177.68488638699503,183.1299204325854,27.210077531754617,266.0,119.0,1.0,8.717650878018153,7.2391118950062925,11.477897834679831,0.28659177954849163,0.820429759644867,1.5387076435381177,4.0,0,1,0-2
301.0,154.8547020719508,288.26172007671323,18.267296969023096,287.0,224.0,0.0,9.695468127211702,9.648430285263805,7.3423169224110705,0.4185564557296932,0.5488962350880995,1.2699509581697983,4.0,0,1,0-2
301.0,79.14981402608329,98.18878053180114,26.544881212985672,282.0,45.0,0.0,5.231324951308107,3.8577151868356894,5.231324951308107,0.4438650192457487,0.9927222524883299,1.5149068247239224,4.0,0,1,0-2
278.0,124.26644881762671,1062.8151422622573,22.860196780101663,204.0,109.0,0.0,14.8348892777336,14.132255602370424,12.018493456986722,0.5388257785915193,0.9197656150733572,1.4616529583201536,1.0,0,1,0-2
257.0,78.82500887283416,226.34640287579415,26.078353214432813,218.0,76.0,1.0,3.641254377082721,3.2329911635618767,6.986812450754632,0.47853069779879964,0.9375606879726758,1.6185498777655654,1.0,0,1,0-2
243.0,116.86573909950243,387.5038118538533,21.74385636891611,208.0,53.0,0.0,7.098286505448434,4.151739238382719,5.347768142367844,0.46946981832440315,0.9789245389762586,1.855122127139578,1.0,0,1,0-2
242.0,99.27552506244955,282.4231279632829,43.15963008843819,210.0,76.0,1.0,7.881703732976743,7.403117624493165,8.824501915401981,0.5589182101571302,0.8676389688658602,1.806079656370515,1.0,0,1,0-2
238.0,101.36006679171452,245.12398671701501,23.98002302631717,219.0,75.0,1.0,7.895193699042902,5.718543153960141,10.74776863966188,0.5002655562086042,0.8743016825696323,1.1375176729643366,1.0,0,1,0-2
227.0,52.717366830852036,252.84593506474906,26.420389783904994,67.0,73.0,1.0,1.8892041612623707,3.1472165797202662,1.2557410240155205,0.7748039320799673,0.8385183714326349,1.3878366328321354,1.0,0,1,0-2
219.0,106.54979302430107,281.32142102424814,22.23864475996927,209.0,108.0,1.0,9.522151383450794,9.973965580110953,11.174192535054983,0.4629690757547255,0.6790561503746038,1.3464471683815482,1.0,0,1,0-2
217.0,95.14131539018618,355.2097264347801,19.554962731195797,207.0,115.0,0.0,10.583931158253389,11.623162517552814,9.227427387389534,0.45998093954095404,0.7026485958047856,1.6910497750312603,1.0,0,1,0-2
215.0,90.6424140266341,505.4804711089243,27.140252484158594,161.0,52.0,2.0,8.87595241532481,9.796461667559521,9.078442242504796,0.47875266709465375,0.70425685140303,1.4992971428357136,1.0,0,1,0-2
208.0,77.24520052169122,201.66517386398817,18.90612677659428,99.0,26.0,0.0,5.315318308615195,5.358714568205447,6.193961930160482,0.6610155041383475,0.6805098182795141,1.32757538361168,1.0,0,1,0-2
203.0,64.91374093835292,159.99716351833382,33.66340119831581,164.0,77.0,2.0,4.759260059388822,4.179010116240031,4.100903671515641,0.6079847496491239,0.7071875175999558,1.5842934050638457,1.0,0,1,0-2
193.0,75.87529651984148,352.3861062184633,16.775252886202573,171.0,31.0,0.0,5.8335368265242,6.861062818504464,6.393915564691507,0.509055186530025,0.9857040146022585,1.449478235035862,1.0,0,1,0-2
187.0,55.03607944173012,348.40051714441665,30.316869496039093,109.0,37.0,1.0,12.25871374468628,10.689257471910377,13.582832830700527,0.5934799978181332,0.6901816559172991,1.5495212692555766,1.0,0,1,0-2
186.0,73.3396882292658,528.6535084205623,31.318149041162652,126.0,83.0,1.0,21.86950973383256,18.405220712078393,19.296818182848625,0.6107011202853619,0.7845657797035271,1.5503040168205247,1.0,0,1,0-2
184.0,71.04788376261027,255.89405610586167,16.24565280771735,54.0,68.0,0.0,10.14037111219183,14.744995743219082,15.351143522768197,0.8718609965305656,0.7214298490012019,1.482648820125038,1.0,0,1,0-2
182.0,61.668032764697145,209.0268855530321,14.612057825109385,167.0,94.0,0.0,8.456174946153396,10.407893832209593,9.333294150366859,0.49484402295643604,0.6414920872573205,1.0659654014203994,1.0,0,1,0-2
163.0,88.8605422721857,343.4255023639864,31.076658840621143,122.0,108.0,1.0,1.1969648828960748,2.2662503254251645,3.287669712150038,0.6938753956607114,0.8447414192117546,1.5994214855808018,1.0,0,1,0-2
161.0,128.86203128795853,361.1957425938797,37.215633665440166,159.0,155.0,1.0,5.735436310429862,2.8801547058483146,6.713567287869009,0.5386532557379292,0.397622131756771,1.4805279209009323,1.0,0,1,0-2
160.0,63.90304006676146,220.41701228361396,20.238617235932406,119.0,98.0,0.0,5.526452368797091,4.505932345041278,2.4967697182713744,0.6255199978871067,0.5751210859159224,1.4981701890090668,1.0,0,1,0-2
157.0,72.40496053405708,117.30863637329496,28.947258965224915,119.0,63.0,1.0,5.797226355392328,6.316282904096967,3.143407128064779,0.645921367917048,0.892217715909237,1.7699052567434277,1.0,0,1,0-2
157.0,51.982179927715414,144.09889600368138,20.099277120562203,41.0,101.0,0.0,7.77712885169419,7.488287725539456,9.023517387334314,0.7170649540269068,0.5026364014689294,1.844138817116366,1.0,0,1,0-2
157.0,74.43041722427091,111.59154247297559,18.22495295764458,143.0,32.0,0.0,4.151013298505902,3.6770200944390323,4.441140472419489,0.5458835118861953,0.9300894477624869,1.1104339942552797,1.0,0,1,0-2
156.0,73.03197709161105,298.56767962093323,29.785119158311026,151.0,150.0,2.0,0.7351985448804719,1.6017708786001157,1.953981855540932,0.5648349116629194,0.3744280733938803,1.6219872901942785,1.0,0,1,0-2
155.0,58.70916579917474,225.43181649805555,26.189935629061477,98.0,44.0,1.0,8.673164983157882,10.827490887740236,10.778609879173596,0.6970273224450164,0.97104610967508,1.5132167076255847,1.0,0,1,0-2
155.0,156.75778339969872,377.5135605700882,35.21291807465244,117.0,65.0,2.0,6.825985861615523,5.456399789425016,7.967891245664168,0.4699312198150115,0.4008030955496752,1.7177684006149316,1.0,0,1,0-2
153.0,76.32650060593309,142.04595696861213,35.67452080444349,124.0,26.0,1.0,6.137045115092824,5.236246958671486,5.574192638736511,0.6074316781161974,0.8638995096248085,1.6023152475641924,1.0,0,1,0-2
149.0,92.04026063305541,179.07696434110983,20.261010278674387,88.0,80.0,1.0,5.708747740178582,2.657080652979391,8.903067557304142,0.6947253566299142,0.5415687735997122,1.670715654262944,1.0,0,1,0-2
144.0,62.76397736403393,249.76148350847933,18.911094542199194,115.0,48.0,0.0,6.073436806152647,6.890169910968714,4.872279718840816,0.5783708628974576,0.49801932872777166,1.3481683878740984,1.0,0,1,0-2
144.0,65.67009960741726,275.76284965168935,31.51973589003326,142.0,138.0,1.0,0.40928258153051117,2.5624338962663575,1.7643645861081134,0.5557861063609517,0.3380022791737663,1.5398093477621766,1.0,0,1,0-2
143.0,55.773935191862805,175.68509508592956,36.23148226691953,68.0,143.0,1.0,4.771245690641916,4.90125534600446,5.039477844434172,0.8071898563708768,0.47740971673734395,1.3228459144577016,1.0,0,1,0-2
142.0,46.928611422114066,806.3392461735004,21.417875572718657,52.0,82.0,0.0,6.522139054931264,4.8754729271121615,2.8811974740728346,0.9973384893343847,0.513990843877926,1.7805979697775391,1.0,0,1,0-2
